%time,field.stamp,field.id,field.x,field.y,field.z,field.distanceFromTag,field.rssi,field.rssi_fp
1730020288379497212,1730020288379241466,5,-2.58,0.87,1.97,5.7159813333333345,-79.27,-81.83
1730020288480158432,1730020288479993343,5,-2.58,0.87,1.97,5.728489000000001,-78.9,-80.57
1730020288579812296,1730020288579512596,5,-2.58,0.87,1.97,5.728489000000001,-79.62,-81.21
1730020288679807472,1730020288679581880,5,-2.58,0.87,1.97,5.728489000000001,-78.59,-81.06
1730020288779995533,1730020288779743671,5,-2.58,0.87,1.97,5.728489000000001,-80.23,-81.4
1730020288879829696,1730020288879635810,5,-2.58,0.87,1.97,5.740996666666668,-79.07,-81.18
1730020288980324586,1730020288980100870,5,-2.58,0.87,1.97,5.747250333333334,-78.98,-81.14
1730020289079616417,1730020289079454183,5,-2.58,0.87,1.97,5.747250333333334,-79.42,-80.62
1730020289180533938,1730020289179916858,5,-2.58,0.87,1.97,5.7347426666666665,-79.11,-80.88
1730020289280071197,1730020289279962062,5,-2.58,0.87,1.97,5.728489000000001,-79.15,-81.91
1730020289379565649,1730020289379376411,5,-2.58,0.87,1.97,5.734743000000001,-79.12,-81.8
1730020289480204331,1730020289479893445,5,-2.58,0.87,1.97,5.759758333333333,-81.43,-83.64
1730020289579009171,1730020289578618764,5,-2.58,0.87,1.97,5.753504333333333,-79.17,-80.69
1730020289679230926,1730020289678928375,5,-2.58,0.87,1.97,5.747250333333334,-78.74,-80.95
1730020289779379784,1730020289779085397,5,-2.58,0.87,1.97,5.728489000000001,-78.81,-80.6
1730020289878776102,1730020289878583192,5,-2.58,0.87,1.97,5.734743000000001,-79.29,-81.07
1730020289977733355,1730020289977442264,5,-2.58,0.87,1.97,5.734743000000001,-79.3,-80.85
1730020290078350718,1730020290077888965,5,-2.58,0.87,1.97,5.728489000000001,-79.47,-81.04
1730020290178013482,1730020290177494287,5,-2.58,0.87,1.97,5.7347426666666665,-78.86,-81.26
1730020290278398488,1730020290277992725,5,-2.58,0.87,1.97,5.740996666666667,-79.73,-81.03
1730020290378178852,1730020290377712726,5,-2.58,0.87,1.97,5.747250666666666,-79.06,-80.83
1730020290476617982,1730020290476141452,5,-2.58,0.87,1.97,5.740997,-79.55,-80.45
1730020290576492782,1730020290576113700,5,-2.58,0.87,1.97,5.728489333333333,-79.22,-80.58
1730020290676877734,1730020290676127195,5,-2.58,0.87,1.97,5.722235333333334,-79.22,-81.5
1730020290777227408,1730020290776108741,5,-2.58,0.87,1.97,5.709727666666667,-79.05,-80.42
1730020290876887593,1730020290876167535,5,-2.58,0.87,1.97,5.728489000000001,-79.01,-80.53
1730020290976444930,1730020290976128578,5,-2.58,0.87,1.97,5.740996666666667,-79.0,-80.87
1730020291076620914,1730020291076108694,5,-2.58,0.87,1.97,5.740996666666667,-79.21,-81.2
1730020291176302912,1730020291176105737,5,-2.58,0.87,1.97,5.715981333333333,-79.11,-80.96
1730020291278146694,1730020291277628421,5,-2.58,0.87,1.97,5.709727666666667,-79.06,-80.63
1730020291377735520,1730020291377516746,5,-2.58,0.87,1.97,5.728489000000001,-78.84,-80.76
1730020291779389746,1730020291779193162,5,-2.58,0.87,1.97,5.709727666666667,-79.27,-80.69
1730020291879198894,1730020291878931522,5,-2.58,0.87,1.97,5.697220000000001,-78.54,-80.43
1730020291978323753,1730020291977914094,5,-2.58,0.87,1.97,5.703474,-79.73,-81.02
1730020292076625071,1730020292076123237,5,-2.58,0.87,1.97,5.709727666666667,-79.16,-80.76
1730020292176684914,1730020292176123380,5,-2.58,0.87,1.97,5.709727666666667,-79.01,-80.44
1730020292276597061,1730020292276088476,5,-2.58,0.87,1.97,5.728489000000001,-81.13,-81.59
1730020292378730522,1730020292378408432,5,-2.58,0.87,1.97,5.740996666666667,-79.05,-81.57
1730020292478829526,1730020292478482007,5,-2.58,0.87,1.97,5.7347426666666665,-79.22,-80.69
1730020292578823233,1730020292578605651,5,-2.58,0.87,1.97,5.728489,-78.74,-80.7
1730020292678945430,1730020292678738117,5,-2.58,0.87,1.97,5.740996666666668,-79.06,-82.37
1730020292776806544,1730020292776152610,5,-2.58,0.87,1.97,5.766012,-79.46,-81.07
1730020292876663528,1730020292876075506,5,-2.58,0.87,1.97,5.778519666666667,-79.35,-81.98
1730020292976446039,1730020292976101398,5,-2.58,0.87,1.97,5.778519666666667,-78.63,-81.06
1730020293076588790,1730020293076129436,5,-2.58,0.87,1.97,5.797281000000001,-79.51,-80.76
1730020293176553460,1730020293176117420,5,-2.58,0.87,1.97,5.8097883333333336,-79.68,-80.9
1730020293276495929,1730020293276035547,5,-2.58,0.87,1.97,5.841057333333334,-80.23,-82.31
1730020293376633967,1730020293376097202,5,-2.58,0.87,1.97,5.859818999999999,-79.51,-80.94
1730020293476609801,1730020293476132154,5,-2.58,0.87,1.97,5.884834333333333,-79.63,-80.7
1730020293576552773,1730020293576128959,5,-2.58,0.87,1.97,5.903595666666667,-79.13,-80.74
1730020293676628979,1730020293676136016,5,-2.58,0.87,1.97,5.922357000000001,-79.39,-80.82
1730020293776855033,1730020293776145935,5,-2.58,0.87,1.97,5.959879999999999,-79.44,-80.76
1730020293877051061,1730020293876089811,5,-2.58,0.87,1.97,5.984895333333334,-79.12,-80.62
1730020293976278812,1730020293976095438,5,-2.58,0.87,1.97,6.022418333333333,-79.03,-80.38
1730020294076628514,1730020294076071262,5,-2.58,0.87,1.97,6.047433333333333,-79.39,-80.74
1730020294377715251,1730020294377404928,5,-2.58,0.87,1.97,6.116225333333333,-80.19,-80.67
1730020294477731513,1730020294477487087,5,-2.58,0.87,1.97,6.2225399999999995,-81.99,-84.4
1730020294577689044,1730020294577456712,5,-2.58,0.87,1.97,6.422662,-81.69,-82.37
1730020294677784954,1730020294677543640,5,-2.58,0.87,1.97,6.4852,-88.77,-92.6
1730020294777875084,1730020294777444362,5,-2.58,0.87,1.97,6.591514666666666,-82.18,-81.87
1730020294879972691,1730020294879726648,5,-2.58,0.87,1.97,6.547738,-81.46,-81.72
1730020294976383357,1730020294976068258,5,-2.58,0.87,1.97,6.61653,-80.71,-81.63
1730020295076533414,1730020295076126098,5,-2.58,0.87,1.97,6.572753333333334,-79.4,-80.64
1730020295176528210,1730020295176050424,5,-2.58,0.87,1.97,6.572753333333334,-79.57,-80.52
1730020295276720762,1730020295276124000,5,-2.58,0.87,1.97,6.560245999999999,-79.03,-80.44
1730020295376731183,1730020295376087188,5,-2.58,0.87,1.97,6.604022666666666,-78.8,-80.77
1730020295478499312,1730020295478015184,5,-2.58,0.87,1.97,6.654053,-79.05,-81.06
1730020295578154422,1730020295577772140,5,-2.58,0.87,1.97,6.754114,-79.24,-81.23
1730020295678214895,1730020295677805900,5,-2.58,0.87,1.97,6.810398333333333,-79.11,-80.93
1730020295778118120,1730020295777743101,5,-2.58,0.87,1.97,6.872936333333334,-79.22,-81.1
1730020295879183406,1730020295878867149,5,-2.58,0.87,1.97,6.885443666666667,-79.35,-80.82
1730020295978779491,1730020295978508472,5,-2.58,0.87,1.97,6.935474333333334,-79.26,-80.56
1730020296078884316,1730020296078716516,5,-2.58,0.87,1.97,6.998012666666668,-79.74,-81.02
1730020296178830134,1730020296178609848,5,-2.58,0.87,1.97,7.066804666666667,-79.52,-80.52
1730020296278984490,1730020296278887987,5,-2.58,0.87,1.97,7.123088666666667,-79.36,-80.43
1730020296378811507,1730020296378706932,5,-2.58,0.87,1.97,7.179372999999999,-80.56,-81.32
1730020296477896158,1730020296477581977,5,-2.58,0.87,1.97,7.254418666666666,-79.15,-80.82
1730020296578068835,1730020296577829360,5,-2.58,0.87,1.97,7.323210666666667,-78.83,-81.09
1730020296678039205,1730020296677612543,5,-2.58,0.87,1.97,7.398256,-78.88,-81.67
1730020296776616712,1730020296776170492,5,-2.58,0.87,1.97,7.485809333333333,-80.03,-81.63
1730020296876704732,1730020296876126050,5,-2.58,0.87,1.97,7.567108666666667,-79.54,-81.04
1730020296979663009,1730020296979230403,5,-2.58,0.87,1.97,7.629646999999999,-78.85,-81.05
1730020297080394784,1730020297080045938,5,-2.58,0.87,1.97,7.685931333333333,-79.19,-81.36
1730020297179828731,1730020297179661273,5,-2.58,0.87,1.97,7.760977333333333,-79.33,-81.14
1730020297280001128,1730020297279642820,5,-2.58,0.87,1.97,7.842276666666667,-79.23,-80.62
1730020297378514829,1730020297378424406,5,-2.58,0.87,1.97,7.911068666666668,-79.13,-80.36
1730020297476674405,1730020297476093292,5,-2.58,0.87,1.97,8.004876000000001,-81.36,-81.54
1730020297576745409,1730020297576090097,5,-2.58,0.87,1.97,8.079922,-78.91,-80.66
1730020297676475917,1730020297676124095,5,-2.58,0.87,1.97,8.154967666666666,-78.98,-80.52
1730020297776262222,1730020297776079416,5,-2.58,0.87,1.97,8.230013,-79.17,-81.66
1730020297876553278,1730020297876123189,5,-2.58,0.87,1.97,8.317566333333334,-79.2,-82.0
1730020297976584504,1730020297976084232,5,-2.58,0.87,1.97,8.411373666666666,-79.43,-82.48
1730020298076875672,1730020298076169729,5,-2.58,0.87,1.97,8.480165999999999,-79.13,-81.05
1730020298176631180,1730020298176085948,5,-2.58,0.87,1.97,8.555211666666667,-79.22,-81.4
1730020298276659605,1730020298276101350,5,-2.58,0.87,1.97,8.630257333333333,-78.76,-80.64
1730020298376641686,1730020298376127243,5,-2.58,0.87,1.97,8.724064333333333,-79.38,-80.39
1730020298476430678,1730020298476108551,5,-2.58,0.87,1.97,8.836632999999999,-79.44,-80.82
1730020298576523120,1730020298576141595,5,-2.58,0.87,1.97,8.924186333333333,-79.14,-80.52
1730020298676634360,1730020298676095008,5,-2.58,0.87,1.97,9.011739666666665,-79.7,-80.57
1730020298776537445,1730020298776075124,5,-2.58,0.87,1.97,9.074277666666667,-79.38,-81.13
1730020298876550004,1730020298876107215,5,-2.58,0.87,1.97,9.168084666666665,-79.12,-80.59
1730020298976534150,1730020298976080894,5,-2.58,0.87,1.97,9.261891666666665,-78.71,-81.24
1730020299076548649,1730020299076109170,5,-2.58,0.87,1.97,9.368206333333331,-79.05,-81.31
1730020299176593223,1730020299176209211,5,-2.58,0.87,1.97,9.449506,-79.33,-81.49
1730020299276315114,1730020299276080131,5,-2.58,0.87,1.97,9.518298,-79.65,-80.75
1730020299376506115,1730020299376125097,5,-2.58,0.87,1.97,9.587090000000002,-79.47,-82.3
1730020299476533215,1730020299476108551,5,-2.58,0.87,1.97,9.693404666666666,-79.57,-81.32
1730020299678480150,1730020299678271293,5,-2.58,0.87,1.97,9.837242333333334,-80.26,-81.61
1730020299779248048,1730020299778987407,5,-2.58,0.87,1.97,9.968572333333332,-79.39,-81.15
1730020299879555564,1730020299879374027,5,-2.58,0.87,1.97,10.074887333333335,-79.37,-80.55
1730020300079713870,1730020300079533815,5,-2.58,0.87,1.97,10.193709666666665,-79.41,-81.04
1730020300179005756,1730020300178724288,5,-2.58,0.87,1.97,10.312532,-79.33,-80.78
1730020300280270197,1730020300279898643,5,-2.58,0.87,1.97,10.456369666666667,-79.84,-81.11
1730020300376516765,1730020300376121044,5,-2.58,0.87,1.97,10.543923,-79.29,-81.08
1730020300476600693,1730020300476117610,5,-2.58,0.87,1.97,10.662745333333334,-78.69,-81.02
1730020300576496526,1730020300576121807,5,-2.58,0.87,1.97,10.744044666666667,-79.49,-82.18
1730020300679874948,1730020300679650783,5,-2.58,0.87,1.97,10.850359333333332,-79.48,-81.57
1730020300778791445,1730020300778558492,5,-2.58,0.87,1.97,10.925405,-79.27,-81.18
1730020300879016356,1730020300878783941,5,-2.58,0.87,1.97,11.025465666666667,-79.97,-83.23
1730020300978769975,1730020300978490591,5,-2.58,0.87,1.97,11.100511333333335,-83.23,-85.3
1730020301078707804,1730020301078420162,5,-2.58,0.87,1.97,11.194318666666666,-79.83,-82.08
1730020301179072652,1730020301178778409,5,-2.58,0.87,1.97,11.300633666666668,-81.55,-81.96
1730020301279908460,1730020301279675245,5,-2.58,0.87,1.97,11.400694666666666,-79.62,-81.03
1730020301378138076,1730020301377827644,5,-2.58,0.87,1.97,11.507009333333334,-79.4,-80.86
1730020301477809430,1730020301477571249,5,-2.58,0.87,1.97,11.569547333333333,-79.41,-80.88
1730020301578131845,1730020301577894926,5,-2.58,0.87,1.97,11.663354666666669,-79.54,-80.72
1730020301678286624,1730020301677757024,5,-2.58,0.87,1.97,11.732146666666665,-79.77,-80.62
1730020301778254865,1730020301777964830,5,-2.58,0.87,1.97,11.844714999999999,-79.77,-80.48
1730020301877717458,1730020301877440452,5,-2.58,0.87,1.97,11.938521666666666,-79.71,-80.82
1730020301977645217,1730020301977408170,5,-2.58,0.87,1.97,12.057344,-80.52,-81.2
1730020302078037566,1730020302077812671,5,-2.58,0.87,1.97,12.151151333333333,-79.71,-80.56
1730020302177920990,1730020302177601814,5,-2.58,0.87,1.97,12.257466333333332,-80.76,-81.33
1730020302278041756,1730020302277653932,5,-2.58,0.87,1.97,12.357527,-80.11,-80.89
1730020302377951892,1730020302377713441,5,-2.58,0.87,1.97,12.445080333333335,-79.76,-81.24
1730020302480225732,1730020302479843854,5,-2.58,0.87,1.97,12.526380000000001,-80.09,-81.02
1730020302579891041,1730020302579804182,5,-2.58,0.87,1.97,12.60768,-79.84,-81.19
1730020302679770443,1730020302679555654,5,-2.58,0.87,1.97,12.713994666666666,-80.5,-81.25
1730020302780066586,1730020302779922485,5,-2.58,0.87,1.97,12.814055333333334,-81.07,-83.45
1730020302880020533,1730020302879781723,5,-2.58,0.87,1.97,12.920369999999998,-80.54,-81.24
1730020302980001315,1730020302979708194,5,-2.58,0.87,1.97,13.020431,-79.9,-81.44
1730020303078097956,1730020303077762365,5,-2.58,0.87,1.97,13.120491999999999,-80.69,-82.87
1730020303178125119,1730020303177673101,5,-2.58,0.87,1.97,13.220552666666668,-81.09,-81.42
1730020303278760468,1730020303278369903,5,-2.58,0.87,1.97,13.426928333333334,-80.04,-81.27
1730020303377790577,1730020303377476930,5,-2.58,0.87,1.97,13.539496999999999,-80.15,-81.39
1730020303477996352,1730020303477580070,5,-2.58,0.87,1.97,13.645812,-80.09,-80.83
1730020303578325364,1730020303578017950,5,-2.58,0.87,1.97,13.770888333333332,-80.41,-81.34
1730020303678316279,1730020303677890062,5,-2.58,0.87,1.97,13.864695333333335,-81.19,-81.7
1730020303778054570,1730020303777782678,5,-2.58,0.87,1.97,13.964756,-80.18,-80.92
1730020303878041080,1730020303877689838,5,-2.58,0.87,1.97,14.064817,-79.96,-80.78
1730020303977901213,1730020303977648496,5,-2.58,0.87,1.97,14.158624333333334,-79.92,-80.89
1730020304078085211,1730020304077740430,5,-2.58,0.87,1.97,14.277447,-80.27,-80.59
1730020304177612886,1730020304177471160,5,-2.58,0.87,1.97,14.377507666666668,-80.12,-80.66
1730020304277999684,1730020304277763366,5,-2.58,0.87,1.97,14.508837666666667,-80.35,-81.14
1730020304377750964,1730020304377362966,5,-2.58,0.87,1.97,14.608898666666667,-80.15,-80.68
1730020304477699792,1730020304477470159,5,-2.58,0.87,1.97,14.70896,-80.39,-81.31
1730020304577966493,1730020304577704906,5,-2.58,0.87,1.97,14.777752,-80.58,-81.38
1730020304678171514,1730020304677797794,5,-2.58,0.87,1.97,14.865305000000001,-80.57,-81.14
1730020304778118926,1730020304777920246,5,-2.58,0.87,1.97,14.965365666666665,-80.78,-81.17
1730020304877693048,1730020304877462863,5,-2.58,0.87,1.97,15.090441666666669,-82.87,-83.15
1730020304976469778,1730020304976104736,5,-2.58,0.87,1.97,15.190502666666667,-81.54,-83.98
1730020305076569834,1730020305076154708,5,-2.58,0.87,1.97,15.290563666666666,-81.45,-83.67
1730020305176292800,1730020305176094532,5,-2.58,0.87,1.97,15.378116999999998,-82.05,-81.99
1730020305276557669,1730020305276115179,5,-2.58,0.87,1.97,15.471924333333334,-82.33,-82.76
1730020305376523992,1730020305376096963,5,-2.58,0.87,1.97,15.565731333333332,-81.7,-83.13
1730020305478592418,1730020305478451251,5,-2.58,0.87,1.97,15.665792333333334,-82.44,-84.46
1730020305579171824,1730020305578854322,5,-2.58,0.87,1.97,15.772107,-89.71,-90.6
1730020305678082235,1730020305677716255,5,-2.58,0.87,1.97,15.872168,-82.11,-82.56
1730020305778301349,1730020305778184890,5,-2.58,0.87,1.97,15.984736,-81.78,-82.32
1730020305878519082,1730020305878193378,5,-2.58,0.87,1.97,16.103557666666664,-81.68,-83.34
1730020305977926431,1730020305977781057,5,-2.58,0.87,1.97,16.216126,-81.25,-81.82
1730020306078266568,1730020306077902555,5,-2.58,0.87,1.97,16.316187,-81.19,-82.54
1730020306178067802,1730020306177708148,5,-2.58,0.87,1.97,16.428756333333332,-81.51,-81.79
1730020306278432570,1730020306278023719,5,-2.58,0.87,1.97,16.547578333333334,-80.63,-82.01
1730020306378491980,1730020306378201246,5,-2.58,0.87,1.97,16.653893333333333,-80.9,-81.51
1730020306478241174,1730020306477997779,5,-2.58,0.87,1.97,16.741446333333332,-80.65,-81.33
1730020306576756055,1730020306576170444,5,-2.58,0.87,1.97,16.847761333333334,-81.69,-81.54
1730020306676670982,1730020306676164865,5,-2.58,0.87,1.97,16.954076333333333,-80.76,-81.73
1730020306777021538,1730020306776309728,5,-2.58,0.87,1.97,17.06039133333333,-80.83,-81.18
1730020306876780859,1730020306876213312,5,-2.58,0.87,1.97,17.147945000000004,-79.76,-80.98
1730020306976668382,1730020306976158142,5,-2.58,0.87,1.97,17.260513333333332,-81.71,-82.0
1730020307076604115,1730020307076182603,5,-2.58,0.87,1.97,17.360574,-80.89,-81.67
1730020307176626368,1730020307176182985,5,-2.58,0.87,1.97,17.473142666666664,-79.99,-80.9
1730020307276468511,1730020307276092767,5,-2.58,0.87,1.97,17.579457,-80.54,-80.96
1730020307376874636,1730020307376192331,5,-2.58,0.87,1.97,17.685772,-80.18,-80.9
1730020307477111662,1730020307476275205,5,-2.58,0.87,1.97,17.804593999999998,-80.21,-80.95
1730020307577119153,1730020307576200962,5,-2.58,0.87,1.97,17.904655666666667,-80.54,-80.87
1730020307676687940,1730020307676099300,5,-2.58,0.87,1.97,18.01722433333333,-80.38,-81.08
1730020307776945502,1730020307776100873,5,-2.58,0.87,1.97,18.123539333333333,-81.49,-81.39
1730020307876735030,1730020307876151800,5,-2.58,0.87,1.97,18.236107666666665,-80.63,-80.93
1730020307976842303,1730020307976167678,5,-2.58,0.87,1.97,18.348675999999998,-83.41,-84.42
1730020308076833465,1730020308076171636,5,-2.58,0.87,1.97,18.45499033333333,-80.94,-82.13
1730020308176566154,1730020308176094532,5,-2.58,0.87,1.97,18.555051333333335,-81.31,-81.66
1730020308276647362,1730020308276089429,5,-2.58,0.87,1.97,18.67387366666667,-81.6,-83.68
1730020308376694432,1730020308376104593,5,-2.58,0.87,1.97,18.773935000000005,-82.38,-82.22
1730020308476954041,1730020308476210594,5,-2.58,0.87,1.97,18.87399566666667,-82.28,-82.49
1730020308577259196,1730020308576175689,5,-2.58,0.87,1.97,18.955295,-81.8,-81.82
1730020308676920427,1730020308676085710,5,-2.58,0.87,1.97,19.049102333333334,-82.46,-84.18
1730020308780588620,1730020308780450344,5,-2.58,0.87,1.97,19.155417333333336,-82.35,-82.32
1730020308879626951,1730020308879341602,5,-2.58,0.87,1.97,19.255478,-83.01,-84.96
1730020308979555642,1730020308978603363,5,-2.58,0.87,1.97,19.349284666666666,-83.12,-85.27
1730020309078820236,1730020309078591346,5,-2.58,0.87,1.97,19.436837666666666,-83.62,-85.0
1730020309178242064,1730020309177736520,5,-2.58,0.87,1.97,19.543152666666668,-85.08,-88.41
1730020309278371567,1730020309278244256,5,-2.58,0.87,1.97,19.655721000000003,-83.18,-83.16
1730020309377953915,1730020309377672672,5,-2.58,0.87,1.97,19.762036000000002,-84.16,-86.45
1730020309477925984,1730020309477607965,5,-2.58,0.87,1.97,19.868351,-84.23,-87.08
1730020309578469939,1730020309578136205,5,-2.58,0.87,1.97,19.974666000000003,-83.73,-84.79
1730020309678040241,1730020309677781820,5,-2.58,0.87,1.97,20.112250000000003,-83.03,-84.9
1730020309778023690,1730020309777787685,5,-2.58,0.87,1.97,20.243579999999998,-82.59,-82.55
1730020309878589342,1730020309878215074,5,-2.58,0.87,1.97,20.362402666666668,-82.92,-82.8
1730020309977833055,1730020309977597236,5,-2.58,0.87,1.97,20.462463333333332,-84.56,-85.65
1730020310078803266,1730020310078486442,5,-2.58,0.87,1.97,20.562524,-82.18,-83.19
1730020310179040335,1730020310178793907,5,-2.58,0.87,1.97,20.681346333333334,-81.94,-82.96
1730020310278986675,1730020310278664350,5,-2.58,0.87,1.97,20.800168666666668,-84.57,-84.37
1730020310379568542,1730020310379276275,5,-2.58,0.87,1.97,20.906483666666666,-81.53,-81.98
1730020310476506282,1730020310476118803,5,-2.58,0.87,1.97,20.98152933333333,-80.98,-81.76
1730020310676567167,1730020310676124811,5,-2.58,0.87,1.97,21.112859666666665,-81.39,-81.32
1730020311077893700,1730020311077543258,5,-2.58,0.87,1.97,17.25425866666667,-81.36,-81.25
1730020311176577684,1730020311176099538,5,-2.58,0.87,1.97,21.825793,-81.22,-81.43
1730020311277045271,1730020311276153802,5,-2.58,0.87,1.97,21.93836166666667,-81.06,-82.29
1730020311376632620,1730020311376188278,5,-2.58,0.87,1.97,22.04467666666667,-81.25,-81.3
1730020311476696552,1730020311476123809,5,-2.58,0.87,1.97,22.16349866666667,-81.17,-80.98
1730020311578993217,1730020311578755378,5,-2.58,0.87,1.97,22.257306,-81.32,-81.44
1730020311679235770,1730020311678983926,5,-2.58,0.87,1.97,22.357366666666664,-80.78,-81.18
1730020311779035865,1730020311778913974,5,-2.58,0.87,1.97,22.457428000000004,-81.23,-81.2
