%time,field.stamp,field.id,field.x,field.y,field.z,field.distanceFromTag,field.rssi,field.rssi_fp
1733129523608166956,1733129523607613325,9,2.31,0.87,0.5,7.091819666666666,-79.34,-80.74
1733129523707832041,1733129523707626819,9,2.31,0.87,0.5,7.104327333333333,-79.14,-80.75
1733129523808195808,1733129523807628393,9,2.31,0.87,0.5,7.104327333333333,-79.69,-81.14
1733129523907983208,1733129523907618522,9,2.31,0.87,0.5,7.091819666666666,-79.06,-80.63
1733129524008037931,1733129524007605314,9,2.31,0.87,0.5,7.079311999999999,-79.72,-80.92
1733129524809267686,1733129524808890581,9,2.31,0.87,0.5,7.0793116666666664,-79.29,-80.68
1733129524909059292,1733129524908805131,9,2.31,0.87,0.5,7.073057666666667,-79.42,-80.93
1733129525007993168,1733129525007609844,9,2.31,0.87,0.5,7.0793116666666664,-79.15,-80.9
1733129525108157074,1733129525107668399,9,2.31,0.87,0.5,7.073058,-79.47,-81.11
1733129525208045149,1733129525207616567,9,2.31,0.87,0.5,7.0730580000000005,-79.5,-80.95
1733129525309060375,1733129525308889627,9,2.31,0.87,0.5,7.041788666666666,-79.59,-80.69
1733129525409219381,1733129525408938646,9,2.31,0.87,0.5,7.060550333333334,-79.24,-80.72
1733129525509249680,1733129525509006023,9,2.31,0.87,0.5,7.060550333333334,-79.25,-80.7
1733129525610654411,1733129525610260248,9,2.31,0.87,0.5,7.091819666666666,-79.24,-80.76
1733129525710625808,1733129525710482358,9,2.31,0.87,0.5,7.073058,-79.24,-80.97
1733129525810995977,1733129525810762166,9,2.31,0.87,0.5,7.091819666666667,-79.36,-81.04
1733129525910864567,1733129525910644292,9,2.31,0.87,0.5,7.079311999999999,-79.2,-80.91
1733129526010649816,1733129526010466098,9,2.31,0.87,0.5,7.091819666666666,-79.37,-80.83
1733129526111054872,1733129526110857248,9,2.31,0.87,0.5,7.079311999999999,-79.15,-80.91
1733129526210935795,1733129526210779190,9,2.31,0.87,0.5,7.073058,-79.08,-80.77
1733129526310882556,1733129526310649156,9,2.31,0.87,0.5,7.073058,-79.18,-80.61
1733129526410877299,1733129526410582780,9,2.31,0.87,0.5,7.073058,-79.13,-80.6
1733129526510606299,1733129526510432243,9,2.31,0.87,0.5,7.066804,-79.18,-80.95
1733129526611293913,1733129526611085414,9,2.31,0.87,0.5,7.0730580000000005,-79.15,-80.67
1733129526710193753,1733129526710032224,9,2.31,0.87,0.5,7.085565666666667,-79.43,-80.81
1733129526810298110,1733129526809999704,9,2.31,0.87,0.5,7.085565666666667,-79.16,-81.1
1733129526910209213,1733129526909902095,9,2.31,0.87,0.5,7.0793116666666664,-79.21,-80.9
1733129527010193169,1733129527009884595,9,2.31,0.87,0.5,7.066804,-79.32,-80.68
1733129527109928774,1733129527109757423,9,2.31,0.87,0.5,7.073058,-79.86,-81.18
1733129527210040906,1733129527209831953,9,2.31,0.87,0.5,7.073058,-79.3,-80.91
1733129527310092954,1733129527309875726,9,2.31,0.87,0.5,7.079311999999999,-79.22,-81.01
1733129527409182093,1733129527408876180,9,2.31,0.87,0.5,7.079311999999999,-79.56,-80.9
1733129527510002153,1733129527509690523,9,2.31,0.87,0.5,7.073058,-79.42,-80.7
1733129527609951581,1733129527609697818,9,2.31,0.87,0.5,7.0793116666666664,-79.27,-80.93
1733129527709913434,1733129527709843397,9,2.31,0.87,0.5,7.0793116666666664,-79.46,-80.85
1733129527810573352,1733129527810349464,9,2.31,0.87,0.5,7.098073333333333,-79.3,-80.73
1733129527909664279,1733129527909470796,9,2.31,0.87,0.5,7.073058,-79.88,-80.93
1733129528010030579,1733129528009872674,9,2.31,0.87,0.5,7.085565666666667,-79.69,-80.78
1733129528109838234,1733129528109638214,9,2.31,0.87,0.5,7.079311999999999,-79.29,-80.77
1733129528210813583,1733129528210561275,9,2.31,0.87,0.5,7.116834999999999,-80.68,-81.04
1733129528309620086,1733129528309425592,9,2.31,0.87,0.5,7.116834999999999,-79.33,-80.95
1733129528410017281,1733129528409730911,9,2.31,0.87,0.5,7.116834999999999,-79.28,-81.02
1733129528510355647,1733129528510071039,9,2.31,0.87,0.5,7.104327333333333,-79.15,-80.71
1733129528610656448,1733129528610488891,9,2.31,0.87,0.5,7.079312000000001,-79.05,-81.0
1733129528710956957,1733129528710776567,9,2.31,0.87,0.5,7.079311999999999,-78.92,-80.66
1733129528810609900,1733129528810387611,9,2.31,0.87,0.5,7.079312000000001,-79.24,-80.75
1733129528909935160,1733129528909706830,9,2.31,0.87,0.5,7.091819666666666,-79.42,-80.82
1733129529010441977,1733129529010268211,9,2.31,0.87,0.5,7.091819666666666,-79.29,-80.89
1733129529110379421,1733129529110149621,9,2.31,0.87,0.5,7.104327333333333,-79.2,-80.81
1733129529210289997,1733129529210011959,9,2.31,0.87,0.5,7.116834999999999,-79.42,-80.84
1733129529310293666,1733129529310041427,9,2.31,0.87,0.5,7.123088666666667,-79.33,-80.87
1733129529409714481,1733129529409617900,9,2.31,0.87,0.5,7.098073333333333,-79.32,-80.67
1733129529510422037,1733129529510215759,9,2.31,0.87,0.5,7.104327333333333,-81.22,-81.52
1733129529609029884,1733129529608942031,9,2.31,0.87,0.5,7.098073666666667,-79.41,-80.82
1733129529709125395,1733129529708769798,9,2.31,0.87,0.5,7.110581333333333,-79.53,-80.62
1733129529809061309,1733129529808824539,9,2.31,0.87,0.5,7.091819666666666,-79.25,-80.97
1733129529908917792,1733129529908734321,9,2.31,0.87,0.5,7.091819666666666,-79.18,-80.77
1733129530009370151,1733129530009139537,9,2.31,0.87,0.5,7.079311999999999,-79.2,-80.61
1733129530110544489,1733129530110328674,9,2.31,0.87,0.5,7.091819666666666,-79.32,-80.83
1733129530310772515,1733129530310482740,9,2.31,0.87,0.5,7.085565666666667,-79.42,-81.29
1733129530410037535,1733129530409753322,9,2.31,0.87,0.5,7.110581,-79.4,-80.71
1733129530510426589,1733129530510153055,9,2.31,0.87,0.5,7.110581,-79.31,-80.68
1733129530610973271,1733129530610809087,9,2.31,0.87,0.5,7.110581,-79.63,-81.1
1733129531209159118,1733129531208911418,9,2.31,0.87,0.5,7.091820000000001,-79.45,-80.77
1733129531310138879,1733129531309925794,9,2.31,0.87,0.5,7.079312000000001,-79.22,-80.63
1733129531410468746,1733129531410304546,9,2.31,0.87,0.5,7.079311999999999,-79.42,-80.91
1733129531510416690,1733129531510257482,9,2.31,0.87,0.5,7.066804,-79.31,-80.98
1733129531608030039,1733129531607620239,9,2.31,0.87,0.5,7.085565666666667,-79.67,-80.85
1733129531708204709,1733129531707666873,9,2.31,0.87,0.5,7.0918193333333335,-79.43,-81.06
1733129531809825199,1733129531809743165,9,2.31,0.87,0.5,7.104327333333333,-79.23,-80.63
1733129531907910718,1733129531907610893,9,2.31,0.87,0.5,7.079311999999999,-79.36,-80.92
1733129532008035781,1733129532007620811,9,2.31,0.87,0.5,7.085565666666667,-79.42,-80.89
1733129532107857417,1733129532107604980,9,2.31,0.87,0.5,7.098073333333333,-79.46,-80.61
1733129532207972670,1733129532207613468,9,2.31,0.87,0.5,7.110581,-79.2,-80.64
1733129532308193756,1733129532307660579,9,2.31,0.87,0.5,7.110581,-79.27,-80.86
1733129532408712763,1733129532407686948,9,2.31,0.87,0.5,7.110581,-80.14,-80.84
1733129532508194061,1733129532507668018,9,2.31,0.87,0.5,7.104327333333333,-79.37,-80.89
1733129532607977519,1733129532607608318,9,2.31,0.87,0.5,7.085565666666667,-79.36,-80.86
1733129532707982918,1733129532707628726,9,2.31,0.87,0.5,7.091819666666666,-79.21,-80.54
1733129532807975166,1733129532807619094,9,2.31,0.87,0.5,7.066804333333333,-79.5,-80.99
1733129532907940580,1733129532907625198,9,2.31,0.87,0.5,7.048043333333333,-79.6,-81.16
1733129533008014285,1733129533007623672,9,2.31,0.87,0.5,7.004266666666666,-79.41,-80.75
1733129533108097986,1733129533107630729,9,2.31,0.87,0.5,6.985505333333333,-79.23,-80.9
1733129533207935595,1733129533207610368,9,2.31,0.87,0.5,6.972997666666667,-79.46,-81.1
1733129533308049191,1733129533307640314,9,2.31,0.87,0.5,6.947982333333333,-79.65,-80.96
1733129533408018305,1733129533407605171,9,2.31,0.87,0.5,6.935474666666667,-79.31,-80.77
1733129533509019085,1733129533508891582,9,2.31,0.87,0.5,6.897951666666667,-79.57,-80.94
1733129533608915134,1733129533608669757,9,2.31,0.87,0.5,6.872936333333333,-79.82,-80.87
1733129533710762063,1733129533710513591,9,2.31,0.87,0.5,6.835413333333334,-79.67,-80.89
1733129533809267434,1733129533808935642,9,2.31,0.87,0.5,6.785383,-79.59,-80.79
1733129533910814403,1733129533910574197,9,2.31,0.87,0.5,6.747860333333333,-80.03,-80.88
1733129534007931415,1733129534007628917,9,2.31,0.87,0.5,6.716591333333334,-79.72,-80.97
1733129534108012913,1733129534107643842,9,2.31,0.87,0.5,6.679068333333333,-80.0,-81.18
1733129534208012525,1733129534207655191,9,2.31,0.87,0.5,6.61653,-79.97,-81.43
1733129534307945953,1733129534307626962,9,2.31,0.87,0.5,6.535230333333334,-79.73,-80.91
1733129534410876644,1733129534410335779,9,2.31,0.87,0.5,6.510215,-79.81,-80.76
1733129534509460678,1733129534509062767,9,2.31,0.87,0.5,6.4789460000000005,-79.64,-80.9
1733129534609244664,1733129534608979225,9,2.31,0.87,0.5,6.441423333333333,-80.21,-81.08
1733129534708923830,1733129534708755016,9,2.31,0.87,0.5,6.385139,-79.67,-80.64
1733129534809060041,1733129534808769941,9,2.31,0.87,0.5,6.335108666666667,-79.48,-81.14
1733129534909015910,1733129534908735752,9,2.31,0.87,0.5,6.303839666666668,-79.04,-80.42
1733129535009484001,1733129535009152412,9,2.31,0.87,0.5,6.260063,-79.42,-80.97
1733129535109323812,1733129535109016418,9,2.31,0.87,0.5,6.210032333333333,-79.24,-80.72
1733129535209174823,1733129535208960771,9,2.31,0.87,0.5,6.153748,-79.26,-80.66
1733129535309087240,1733129535308744192,9,2.31,0.87,0.5,6.084956333333333,-79.21,-81.04
1733129535408933777,1733129535408763885,9,2.31,0.87,0.5,6.028672,-79.18,-80.81
1733129535509246040,1733129535508828639,9,2.31,0.87,0.5,5.972387666666666,-79.55,-80.92
1733129535609127370,1733129535609002828,9,2.31,0.87,0.5,5.947372333333334,-79.2,-80.78
1733129535709211878,1733129535708926439,9,2.31,0.87,0.5,5.916103333333333,-79.07,-80.6
1733129535809081080,1733129535808856487,9,2.31,0.87,0.5,5.878580333333333,-78.83,-80.49
1733129535909039334,1733129535908785581,9,2.31,0.87,0.5,5.834803666666666,-79.18,-80.59
1733129536009049280,1733129536008816480,9,2.31,0.87,0.5,5.7785193333333345,-78.99,-80.48
1733129536109008791,1733129536108895301,9,2.31,0.87,0.5,5.759758000000001,-79.12,-80.61
1733129536208959830,1733129536208744525,9,2.31,0.87,0.5,5.740996666666667,-79.14,-80.68
1733129536309375931,1733129536309037685,9,2.31,0.87,0.5,5.709727666666667,-79.29,-81.08
1733129536410011749,1733129536409683942,9,2.31,0.87,0.5,5.647189666666667,-78.67,-80.39
1733129536510829346,1733129536510647773,9,2.31,0.87,0.5,5.572144000000001,-78.84,-80.6
1733129536607946060,1733129536607649803,9,2.31,0.87,0.5,5.528367333333333,-78.69,-80.4
1733129536708104027,1733129536707645177,9,2.31,0.87,0.5,5.478336666666667,-79.44,-80.94
1733129536808037444,1733129536807642459,9,2.31,0.87,0.5,5.43456,-79.06,-80.64
1733129536909219410,1733129536908950567,9,2.31,0.87,0.5,5.403290999999999,-79.49,-81.18
1733129537009060151,1733129537008909940,9,2.31,0.87,0.5,5.4095450000000005,-79.04,-80.53
1733129537107927420,1733129537107644081,9,2.31,0.87,0.5,5.390783666666667,-79.04,-80.61
1733129537207838673,1733129537207641363,9,2.31,0.87,0.5,5.372022333333334,-78.84,-80.75
1733129537308087887,1733129537307654380,9,2.31,0.87,0.5,5.315738,-78.82,-80.68
1733129537408042805,1733129537407598257,9,2.31,0.87,0.5,5.2907226666666665,-79.0,-80.62
1733129537509024483,1733129537508726835,9,2.31,0.87,0.5,5.271961,-79.12,-80.54
1733129537609010745,1733129537608891725,9,2.31,0.87,0.5,5.259453333333333,-79.13,-80.52
1733129537808133177,1733129537807627677,9,2.31,0.87,0.5,5.240692,-79.17,-80.62
1733129537909591904,1733129537909335136,9,2.31,0.87,0.5,5.203169333333332,-79.26,-80.53
1733129538008125199,1733129538007614135,9,2.31,0.87,0.5,5.203169333333334,-80.87,-81.57
1733129538110272390,1733129538110183238,9,2.31,0.87,0.5,5.190661333333334,-79.53,-80.99
1733129538209076432,1733129538208992958,9,2.31,0.87,0.5,5.184407333333334,-79.65,-81.03
1733129538307980146,1733129538307609796,9,2.31,0.87,0.5,5.1719,-80.45,-81.2
1733129538410745481,1733129538410577058,9,2.31,0.87,0.5,5.1719,-79.69,-80.87
1733129538510451818,1733129538510226726,9,2.31,0.87,0.5,5.178154,-79.57,-80.85
1733129538610140178,1733129538609977245,9,2.31,0.87,0.5,5.178154,-79.26,-81.0
1733129538710708947,1733129538710566759,9,2.31,0.87,0.5,5.203169333333334,-79.29,-80.64
1733129538810471132,1733129538810316562,9,2.31,0.87,0.5,5.2281846666666665,-79.29,-80.6
1733129538910924262,1733129538910777807,9,2.31,0.87,0.5,5.246946,-79.06,-80.77
1733129539011290124,1733129539011021137,9,2.31,0.87,0.5,5.265707333333332,-79.11,-81.0
1733129539110688737,1733129539110412836,9,2.31,0.87,0.5,5.284468666666666,-79.01,-80.4
1733129539210510056,1733129539210333585,9,2.31,0.87,0.5,5.309484,-78.95,-80.47
1733129539310723870,1733129539310323476,9,2.31,0.87,0.5,5.328245666666667,-78.91,-80.38
1733129539410589871,1733129539410306215,9,2.31,0.87,0.5,5.359514666666667,-79.24,-80.72
1733129539510788063,1733129539510521888,9,2.31,0.87,0.5,5.390783333333334,-78.98,-80.96
1733129539610634759,1733129539610430955,9,2.31,0.87,0.5,5.43456,-78.93,-80.54
1733129539710561559,1733129539710362195,9,2.31,0.87,0.5,5.4720830000000005,-78.8,-80.69
1733129539810638585,1733129539810389995,9,2.31,0.87,0.5,5.509606000000001,-79.11,-81.07
1733129539911263067,1733129539910934925,9,2.31,0.87,0.5,5.565890333333333,-79.29,-80.76
1733129540010574424,1733129540010362386,9,2.31,0.87,0.5,5.622174333333334,-78.95,-80.52
1733129540110873707,1733129540110697984,9,2.31,0.87,0.5,5.703474,-78.88,-80.55
1733129540210550902,1733129540210360050,9,2.31,0.87,0.5,5.747250666666667,-78.68,-80.42
1733129540310490534,1733129540310418367,9,2.31,0.87,0.5,5.834804000000001,-78.89,-80.53
1733129540410231060,1733129540410130977,9,2.31,0.87,0.5,5.891088,-79.29,-80.89
1733129540510475703,1733129540510294198,9,2.31,0.87,0.5,5.953626,-79.14,-80.92
1733129540610519970,1733129540610211610,9,2.31,0.87,0.5,5.984895333333333,-79.26,-81.11
1733129540710496308,1733129540710297584,9,2.31,0.87,0.5,6.047433666666667,-79.17,-80.94
1733129540810605476,1733129540810467004,9,2.31,0.87,0.5,6.134987,-79.3,-80.82
1733129540910442205,1733129540910276889,9,2.31,0.87,0.5,6.222540333333334,-79.44,-80.83
1733129541010591441,1733129541010469913,9,2.31,0.87,0.5,6.285078333333334,-79.8,-81.16
1733129541110936884,1733129541110693454,9,2.31,0.87,0.5,6.353870333333333,-80.04,-81.98
1733129541210629931,1733129541210440158,9,2.31,0.87,0.5,6.428916,-79.32,-81.15
1733129541709622845,1733129541709480285,9,2.31,0.87,0.5,6.916712999999999,-78.96,-80.68
1733129541809921773,1733129541809729099,9,2.31,0.87,0.5,7.016774000000001,-78.97,-80.56
1733129541909702235,1733129541909533023,9,2.31,0.87,0.5,7.1043270000000005,-78.91,-80.75
1733129542008997721,1733129542008751869,9,2.31,0.87,0.5,7.179372666666666,-79.01,-80.57
1733129542110882463,1733129542110738754,9,2.31,0.87,0.5,7.266926000000001,-79.06,-80.61
1733129542210623122,1733129542210355520,9,2.31,0.87,0.5,7.366986999999999,-78.98,-80.69
1733129542311197771,1733129542310926198,9,2.31,0.87,0.5,7.473301666666667,-79.12,-80.75
1733129542410817593,1733129542410680055,9,2.31,0.87,0.5,7.560855,-78.96,-80.69
1733129542510613432,1733129542510476589,9,2.31,0.87,0.5,7.66717,-78.96,-80.4
1733129542907928609,1733129542907636404,9,2.31,0.87,0.5,7.861038333333333,-79.13,-80.49
1733129543009130012,1733129543008786201,9,2.31,0.87,0.5,8.048652666666667,-79.21,-80.61
1733129543108964197,1733129543108868360,9,2.31,0.87,0.5,8.223759333333332,-78.88,-80.48
1733129543209067395,1733129543208897590,9,2.31,0.87,0.5,8.323820333333334,-79.03,-80.63
1733129543309136493,1733129543308825254,9,2.31,0.87,0.5,8.461404333333334,-79.26,-80.75
1733129543407957239,1733129543407650709,9,2.31,0.87,0.5,8.567719333333333,-79.16,-80.62
1733129543608300227,1733129543607665300,9,2.31,0.87,0.5,8.724064666666665,-78.93,-80.41
1733129543709178416,1733129543708884000,9,2.31,0.87,0.5,8.849140666666665,-79.13,-80.7
1733129543810042492,1733129543809926986,9,2.31,0.87,0.5,9.017993333333335,-79.44,-80.73
1733129543910084647,1733129543910010814,9,2.31,0.87,0.5,9.130561666666667,-79.39,-80.44
1733129544008931918,1733129544008676767,9,2.31,0.87,0.5,9.243130333333333,-79.55,-80.82
1733129544109416797,1733129544109198331,9,2.31,0.87,0.5,9.343191333333332,-79.78,-81.65
1733129544209587872,1733129544209517478,9,2.31,0.87,0.5,9.45576,-80.49,-81.22
1733129544309782972,1733129544309592008,9,2.31,0.87,0.5,9.580836333333334,-80.97,-81.46
1733129544410087753,1733129544409789800,9,2.31,0.87,0.5,9.699658666666666,-84.46,-85.69
1733129544511725564,1733129544511398315,9,2.31,0.87,0.5,9.799719333333334,-81.14,-82.4
1733129544641018483,1733129544640485286,9,2.31,0.87,0.5,9.89978,-80.58,-82.46
1733129544709533208,1733129544709241390,9,2.31,0.87,0.5,9.993587,-80.51,-81.23
1733129544807932043,1733129544807606220,9,2.31,0.87,0.5,10.093648333333332,-80.33,-81.16
1733129544908017217,1733129544907619237,9,2.31,0.87,0.5,10.206217,-80.04,-81.1
1733129545007857016,1733129545007602453,9,2.31,0.87,0.5,10.331293333333333,-79.64,-81.25
1733129545108202226,1733129545107674837,9,2.31,0.87,0.5,10.456369666666667,-79.63,-80.79
1733129545209785955,1733129545209449291,9,2.31,0.87,0.5,10.562684666666668,-79.63,-80.72
1733129545309551665,1733129545309469223,9,2.31,0.87,0.5,10.668999333333334,-79.67,-81.11
1733129545410411954,1733129545409472227,9,2.31,0.87,0.5,10.781567666666668,-79.32,-80.97
1733129545509722402,1733129545509515285,9,2.31,0.87,0.5,10.919151333333332,-79.24,-80.53
1733129545609936607,1733129545609795331,9,2.31,0.87,0.5,11.03172,-79.0,-80.63
1733129545709926723,1733129545709725141,9,2.31,0.87,0.5,11.150542333333334,-79.48,-80.76
1733129545809817714,1733129545809611320,9,2.31,0.87,0.5,11.238095666666666,-79.31,-80.77
1733129545909821312,1733129545909615516,9,2.31,0.87,0.5,11.350664333333334,-79.24,-80.76
1733129546009134892,1733129546008941173,9,2.31,0.87,0.5,11.444471333333333,-79.08,-80.44
1733129546109623014,1733129546108938932,9,2.31,0.87,0.5,11.563293666666667,-79.32,-80.51
1733129546209279198,1733129546209074497,9,2.31,0.87,0.5,11.663354666666669,-79.06,-80.62
1733129546309179476,1733129546308885097,9,2.31,0.87,0.5,11.775923333333333,-79.36,-80.82
1733129546409199950,1733129546408975362,9,2.31,0.87,0.5,11.875984333333335,-79.2,-80.72
1733129546509069200,1733129546508875608,9,2.31,0.87,0.5,11.994806666666667,-79.32,-81.01
1733129546608943232,1733129546608678817,9,2.31,0.87,0.5,12.107375,-79.45,-80.95
1733129546709109433,1733129546708854198,9,2.31,0.87,0.5,12.345019333333333,-79.03,-80.82
1733129546808966763,1733129546808723211,9,2.31,0.87,0.5,12.482603333333335,-79.07,-80.69
1733129546907955634,1733129546907649993,9,2.31,0.87,0.5,12.607679666666668,-79.37,-80.6
1733129547007979868,1733129547007638692,9,2.31,0.87,0.5,12.726502333333334,-79.04,-80.49
1733129547107890026,1733129547107617855,9,2.31,0.87,0.5,12.820309333333334,-79.32,-80.93
1733129547209176178,1733129547209004402,9,2.31,0.87,0.5,12.926623999999999,-79.15,-80.53
1733129547309004056,1733129547308749675,9,2.31,0.87,0.5,13.039192333333332,-80.14,-80.83
1733129547409059613,1733129547408775091,9,2.31,0.87,0.5,13.164268666666667,-79.27,-80.5
1733129547509421206,1733129547509114027,9,2.31,0.87,0.5,13.289344999999999,-79.98,-81.27
1733129547608088344,1733129547607650995,9,2.31,0.87,0.5,13.414421333333332,-79.84,-80.92
1733129547708027475,1733129547707645893,9,2.31,0.87,0.5,13.545751333333333,-79.84,-80.87
1733129547807941683,1733129547807580947,9,2.31,0.87,0.5,13.670826999999997,-79.41,-80.76
1733129547907953518,1733129547907629013,9,2.31,0.87,0.5,13.814664666666665,-80.82,-81.23
1733129548008463786,1733129548007621049,9,2.31,0.87,0.5,13.952248666666668,-80.0,-80.91
1733129548108054499,1733129548107628822,9,2.31,0.87,0.5,14.083579,-79.97,-80.76
1733129548207950290,1733129548207628965,9,2.31,0.87,0.5,14.196147666666668,-79.7,-80.85
1733129548307875019,1733129548307610273,9,2.31,0.87,0.5,14.308715999999999,-79.8,-80.47
1733129548408099370,1733129548407624006,9,2.31,0.87,0.5,14.427538,-80.27,-81.29
1733129548507962693,1733129548507606983,9,2.31,0.87,0.5,14.546360333333332,-79.9,-81.02
1733129549109051378,1733129549108737468,9,2.31,0.87,0.5,15.328086666666666,-81.2,-81.65
1733129549209096061,1733129549208902597,9,2.31,0.87,0.5,15.453162999999998,-81.18,-81.09
1733129549308004206,1733129549307610511,9,2.31,0.87,0.5,15.565731666666666,-80.88,-81.32
