%time,field.stamp,field.id,field.x,field.y,field.z,field.distanceFromTag,field.rssi,field.rssi_fp
1734501485317590607,1734501485317395687,3,2.5775,0.87,1.97,7.304449333333333,-79.71,-80.75
1734501485417273454,1734501485416840553,3,2.5775,0.87,1.97,7.316956666666667,-79.45,-80.72
1734501485517856510,1734501485517509222,3,2.5775,0.87,1.97,7.310703,-80.47,-81.43
1734501485617857711,1734501485617567539,3,2.5775,0.87,1.97,7.304449000000001,-79.6,-80.93
1734501485717226639,1734501485717013597,3,2.5775,0.87,1.97,7.298195333333333,-79.76,-81.04
1734501485817166696,1734501485817014217,3,2.5775,0.87,1.97,7.279433999999999,-79.89,-80.93
1734501485917063364,1734501485916918039,3,2.5775,0.87,1.97,7.279433999999999,-79.46,-80.83
1734501486017548401,1734501486017412424,3,2.5775,0.87,1.97,7.304449333333333,-79.65,-80.98
1734501486117254585,1734501486117069005,3,2.5775,0.87,1.97,7.304449333333333,-79.87,-80.77
1734501486217363436,1734501486217154026,3,2.5775,0.87,1.97,7.3107033333333336,-79.42,-80.7
1734501486317720856,1734501486317514419,3,2.5775,0.87,1.97,7.2669266666666665,-79.01,-80.84
1734501486418273126,1734501486417990446,3,2.5775,0.87,1.97,7.285688,-79.82,-81.09
1734501486517411798,1734501486517217397,3,2.5775,0.87,1.97,7.291941666666666,-79.66,-81.04
1734501486617367885,1734501486617144346,3,2.5775,0.87,1.97,7.310703,-79.43,-80.44
1734501486717236535,1734501486717056035,3,2.5775,0.87,1.97,7.304449000000001,-79.82,-80.69
1734501486817875773,1734501486817614793,3,2.5775,0.87,1.97,7.285687666666667,-79.28,-80.7
1734501486916974234,1734501486916819810,3,2.5775,0.87,1.97,7.285687666666667,-78.9,-80.95
1734501487017480627,1734501487017305135,3,2.5775,0.87,1.97,7.285687666666667,-78.79,-81.1
1734501487117378265,1734501487117160081,3,2.5775,0.87,1.97,7.285687666666667,-79.02,-80.7
1734501487217350573,1734501487217223167,3,2.5775,0.87,1.97,7.304449000000001,-83.42,-84.22
1734501487318032340,1734501487317951917,3,2.5775,0.87,1.97,7.291941666666666,-79.2,-80.92
1734501487418115432,1734501487417915105,3,2.5775,0.87,1.97,7.304449333333333,-79.82,-80.97
1734501487517225069,1734501487517002582,3,2.5775,0.87,1.97,7.291941666666666,-79.78,-81.02
1734501487617065869,1734501487616860389,3,2.5775,0.87,1.97,7.310703,-79.59,-80.87
1734501488215373807,1734501488215015649,3,2.5775,0.87,1.97,7.291941333333334,-80.27,-81.17
1734501488317511284,1734501488317255973,3,2.5775,0.87,1.97,7.291941333333334,-79.39,-80.86
1734501488417409927,1734501488417197465,3,2.5775,0.87,1.97,7.310702666666667,-79.52,-80.99
1734501488517527605,1734501488517208576,3,2.5775,0.87,1.97,7.298195,-79.78,-80.64
1734501488615405428,1734501488615089178,3,2.5775,0.87,1.97,7.298195,-79.52,-80.96
1734501488718624681,1734501488718384265,3,2.5775,0.87,1.97,7.285687666666667,-79.21,-80.61
1734501488820206935,1734501488817973852,3,2.5775,0.87,1.97,7.279433999999999,-79.45,-80.73
1734501488917187684,1734501488916954994,3,2.5775,0.87,1.97,7.2669266666666665,-79.38,-80.85
1734501489016440338,1734501489016202688,3,2.5775,0.87,1.97,7.285688,-79.81,-80.89
1734501489116617083,1734501489116340160,3,2.5775,0.87,1.97,7.285688,-80.05,-80.97
1734501489216408767,1734501489216154098,3,2.5775,0.87,1.97,7.298195333333333,-79.38,-80.74
1734501489319384124,1734501489318288803,3,2.5775,0.87,1.97,7.298195333333333,-79.22,-80.76
1734501489416735563,1734501489416362285,3,2.5775,0.87,1.97,7.291941666666666,-79.22,-80.65
1734501489516606167,1734501489516309738,3,2.5775,0.87,1.97,7.260672666666667,-79.53,-80.72
1734501489616631006,1734501489616317033,3,2.5775,0.87,1.97,7.248165,-79.49,-80.99
1734501489716397018,1734501489716115236,3,2.5775,0.87,1.97,7.248165,-79.46,-80.64
1734501489846587274,1734501489846254587,3,2.5775,0.87,1.97,7.279433999999999,-79.64,-80.93
1734501489916425457,1734501489916288614,3,2.5775,0.87,1.97,7.285687666666667,-79.86,-80.98
1734501490015354787,1734501490015002727,3,2.5775,0.87,1.97,7.285687666666667,-79.69,-80.59
1734501490115358946,1734501490115066528,3,2.5775,0.87,1.97,7.291941666666666,-80.28,-81.53
1734501490215408455,1734501490215005874,3,2.5775,0.87,1.97,7.291941666666666,-79.72,-80.73
1734501490315789146,1734501490315049409,3,2.5775,0.87,1.97,7.285687666666667,-79.84,-80.92
1734501490415697739,1734501490414998292,3,2.5775,0.87,1.97,7.266926333333333,-79.74,-80.7
1734501490515527742,1734501490514985322,3,2.5775,0.87,1.97,7.2544189999999995,-79.31,-80.52
1734501490615329571,1734501490615010261,3,2.5775,0.87,1.97,7.260673,-79.41,-80.64
1734501490715689380,1734501490715036869,3,2.5775,0.87,1.97,7.248165333333333,-79.77,-81.01
1734501490815500311,1734501490815019607,3,2.5775,0.87,1.97,7.254419000000001,-79.67,-80.78
1734501491015455943,1734501491015015602,3,2.5775,0.87,1.97,7.260672666666667,-79.19,-80.56
1734501491117334993,1734501491115044593,3,2.5775,0.87,1.97,7.273180333333333,-80.12,-80.85
1734501491215344276,1734501491215016126,3,2.5775,0.87,1.97,7.273180333333333,-79.67,-80.88
1734501491315625675,1734501491314998626,3,2.5775,0.87,1.97,7.2669266666666665,-79.27,-80.72
1734501491415344915,1734501491415016889,3,2.5775,0.87,1.97,7.260672666666667,-79.21,-80.55
1734501491516904374,1734501491516662120,3,2.5775,0.87,1.97,7.279433999999999,-79.84,-80.98
1734501491617428139,1734501491617285728,3,2.5775,0.87,1.97,6.053687333333333,-84.84,-101.2
1734501491717398850,1734501491717095136,3,2.5775,0.87,1.97,6.0787026666666675,-79.72,-80.96
1734501491817801376,1734501491817633867,3,2.5775,0.87,1.97,6.053687666666666,-79.67,-80.73
1734501491917552957,1734501491917369842,3,2.5775,0.87,1.97,7.285688,-80.07,-80.84
1734501492017519095,1734501492017447710,3,2.5775,0.87,1.97,7.273180333333333,-79.62,-80.56
1734501492116230720,1734501492116128444,3,2.5775,0.87,1.97,7.285687666666667,-79.78,-80.68
1734501492216936779,1734501492216553688,3,2.5775,0.87,1.97,7.27318,-79.17,-80.45
1734501492319512902,1734501492319164752,3,2.5775,0.87,1.97,7.279433666666667,-79.18,-80.54
1734501492419120572,1734501492418823003,3,2.5775,0.87,1.97,7.27318,-79.38,-80.62
1734501492518859171,1734501492518657684,3,2.5775,0.87,1.97,7.279433999999999,-79.54,-81.05
1734501492618464015,1734501492618327856,3,2.5775,0.87,1.97,7.273180333333333,-79.8,-80.88
1734501492719087266,1734501492718738079,3,2.5775,0.87,1.97,7.285688,-79.77,-80.78
1734501492817621051,1734501492817381381,3,2.5775,0.87,1.97,7.285688,-79.97,-80.9
1734501492915424151,1734501492915016889,3,2.5775,0.87,1.97,3.8711079999999995,-79.83,-80.82
1734501493816649636,1734501493816219091,3,2.5775,0.87,1.97,7.248164666666667,-79.36,-81.07
1734501493916886959,1734501493916606426,3,2.5775,0.87,1.97,7.223149333333333,-79.51,-81.1
1734501494018176036,1734501494017916202,3,2.5775,0.87,1.97,7.173119,-79.32,-80.77
1734501494118409293,1734501494118200063,3,2.5775,0.87,1.97,7.148104,-79.8,-81.77
1734501494215481501,1734501494215008974,3,2.5775,0.87,1.97,7.123089,-79.49,-81.63
1734501494315884162,1734501494315014362,3,2.5775,0.87,1.97,7.098073666666667,-79.57,-83.12
1734501494416840220,1734501494416643619,3,2.5775,0.87,1.97,7.079311999999999,-80.55,-83.04
1734501494516510685,1734501494516236782,3,2.5775,0.87,1.97,7.035535333333333,-79.87,-82.07
1734501494616667504,1734501494616384744,3,2.5775,0.87,1.97,6.985505,-80.03,-81.28
1734501494716355545,1734501494716232538,3,2.5775,0.87,1.97,6.922967,-79.96,-80.96
1734501494816637361,1734501494816420555,3,2.5775,0.87,1.97,6.879190333333334,-79.43,-80.62
1734501494916593272,1734501494916496276,3,2.5775,0.87,1.97,6.822906,-79.4,-80.48
1734501495017617557,1734501495017403364,3,2.5775,0.87,1.97,6.747860333333333,-79.86,-80.81
1734501495117758052,1734501495117607593,3,2.5775,0.87,1.97,6.697829666666667,-79.28,-80.4
1734501495217467280,1734501495217301607,3,2.5775,0.87,1.97,6.672814333333334,-79.55,-80.88
1734501495317504855,1734501495317243576,3,2.5775,0.87,1.97,6.647799,-79.23,-80.75
1734501495417485443,1734501495417220830,3,2.5775,0.87,1.97,6.622784,-81.45,-83.9
1734501495517570183,1734501495517360448,3,2.5775,0.87,1.97,6.566499666666666,-80.29,-80.93
1734501495617512929,1734501495617303609,3,2.5775,0.87,1.97,6.522723,-79.09,-80.54
1734501495717564465,1734501495717274665,3,2.5775,0.87,1.97,6.453931,-80.04,-83.3
1734501495817283491,1734501495817126750,3,2.5775,0.87,1.97,6.403900666666666,-79.71,-83.22
1734501495917201279,1734501495917075157,3,2.5775,0.87,1.97,6.341362666666666,-78.92,-81.43
1734501496017451725,1734501496017289161,3,2.5775,0.87,1.97,6.266317,-78.97,-80.72
1734501496117157827,1734501496116954803,3,2.5775,0.87,1.97,6.185017333333334,-79.17,-80.79
1734501496217211479,1734501496217064142,3,2.5775,0.87,1.97,6.1287329999999995,-79.03,-80.52
1734501496317235775,1734501496317034959,3,2.5775,0.87,1.97,6.072448666666666,-79.43,-80.8
1734501496417297822,1734501496417028188,3,2.5775,0.87,1.97,6.053687333333333,-79.2,-81.06
1734501496517411853,1734501496517178058,3,2.5775,0.87,1.97,5.9911493333333325,-78.95,-80.42
1734501496617775751,1734501496617501020,3,2.5775,0.87,1.97,5.972387666666667,-78.92,-81.21
1734501496717547962,1734501496717188358,3,2.5775,0.87,1.97,5.909849666666666,-79.24,-81.16
1734501496817632097,1734501496817363739,3,2.5775,0.87,1.97,5.872326666666666,-79.73,-82.91
1734501496917501657,1734501496917207717,3,2.5775,0.87,1.97,5.822296333333334,-79.39,-82.85
1734501497017119444,1734501497016930341,3,2.5775,0.87,1.97,5.759758000000001,-78.77,-80.62
1734501497117509606,1734501497117253303,3,2.5775,0.87,1.97,5.709727666666666,-78.57,-80.74
1734501497217403949,1734501497217160940,3,2.5775,0.87,1.97,5.653443333333333,-79.05,-81.25
1734501497317457389,1734501497317215204,3,2.5775,0.87,1.97,5.615920666666668,-79.69,-80.47
1734501497417163263,1734501497416965007,3,2.5775,0.87,1.97,5.572144000000001,-79.22,-80.66
1734501497517258459,1734501497517115592,3,2.5775,0.87,1.97,5.509606000000001,-79.39,-80.66
1734501497617038677,1734501497616787433,3,2.5775,0.87,1.97,5.4720830000000005,-79.19,-80.76
1734501497717262789,1734501497717083215,3,2.5775,0.87,1.97,5.447067666666666,-79.36,-80.89
1734501497817417897,1734501497817203044,3,2.5775,0.87,1.97,5.428306333333334,-79.17,-80.74
1734501497917400280,1734501497917335033,3,2.5775,0.87,1.97,5.390783666666667,-79.17,-81.41
1734501498017193062,1734501498017076969,3,2.5775,0.87,1.97,5.353261,-79.05,-81.45
1734501498117644158,1734501498117329835,3,2.5775,0.87,1.97,5.3219916666666665,-78.8,-81.21
1734501498217409906,1734501498217148303,3,2.5775,0.87,1.97,5.296976333333333,-79.12,-80.88
1734501499215504819,1734501499215122938,3,2.5775,0.87,1.97,5.190661666666667,-79.47,-80.71
1734501499316623142,1734501499316337108,3,2.5775,0.87,1.97,5.184408,-79.51,-80.67
1734501499416430558,1734501499416219234,3,2.5775,0.87,1.97,5.1719,-79.12,-81.25
1734501499516591064,1734501499516294717,3,2.5775,0.87,1.97,5.178154,-79.27,-81.01
1734501499616923511,1734501499616660594,3,2.5775,0.87,1.97,5.184407666666666,-79.53,-80.59
1734501499716272808,1734501499716041326,3,2.5775,0.87,1.97,5.221930666666666,-79.36,-80.61
1734501499817003210,1734501499816702365,3,2.5775,0.87,1.97,5.259453333333333,-79.76,-80.98
1734501499916418240,1734501499916121482,3,2.5775,0.87,1.97,5.253199666666666,-79.83,-80.83
1734501500016765657,1734501500016393899,3,2.5775,0.87,1.97,5.259453333333333,-79.67,-80.88
1734501500116947225,1734501500116609334,3,2.5775,0.87,1.97,5.2719613333333335,-79.36,-80.55
1734501500216564293,1734501500216280937,3,2.5775,0.87,1.97,5.3344993333333335,-79.29,-80.72
1734501500315455040,1734501500315023660,3,2.5775,0.87,1.97,5.384530000000001,-79.48,-80.79
1734501500415586082,1734501500414999008,3,2.5775,0.87,1.97,5.428306333333333,-79.17,-80.43
1734501500515376552,1734501500515000581,3,2.5775,0.87,1.97,5.453321333333334,-79.26,-80.36
1734501500615476101,1734501500615036487,3,2.5775,0.87,1.97,5.478336666666666,-79.68,-80.42
1734501500715737051,1734501500715082168,3,2.5775,0.87,1.97,5.522113333333333,-79.03,-80.64
1734501500818307578,1734501500818157911,3,2.5775,0.87,1.97,5.603413,-78.79,-81.03
1734501500918177078,1734501500917811155,3,2.5775,0.87,1.97,5.659697,-79.24,-81.08
1734501501017846428,1734501501017711877,3,2.5775,0.87,1.97,5.7159813333333345,-79.14,-80.74
1734501501117974594,1734501501117638349,3,2.5775,0.87,1.97,5.747250333333334,-79.08,-80.69
1734501501217435966,1734501501217258930,3,2.5775,0.87,1.97,5.797281000000001,-79.51,-80.87
1734501501317333725,1734501501317112922,3,2.5775,0.87,1.97,5.82855,-79.32,-80.74
1734501501417250986,1734501501417042970,3,2.5775,0.87,1.97,5.909849666666666,-79.37,-80.59
1734501501517783405,1734501501517496109,3,2.5775,0.87,1.97,6.003656666666667,-78.91,-80.66
1734501501617383406,1734501501617029428,3,2.5775,0.87,1.97,6.128733,-78.15,-80.9
1734501501717508812,1734501501717245340,3,2.5775,0.87,1.97,6.2225399999999995,-79.12,-81.39
1734501501817003836,1734501501816856622,3,2.5775,0.87,1.97,6.3100933333333336,-78.78,-80.63
1734501501917549870,1734501501917313337,3,2.5775,0.87,1.97,6.378885333333333,-79.29,-80.97
1734501502017373489,1734501502017063140,3,2.5775,0.87,1.97,6.422662,-79.16,-80.46
1734501502118062592,1734501502117417812,3,2.5775,0.87,1.97,6.497708,-79.01,-80.68
1734501502217319021,1734501502217030048,3,2.5775,0.87,1.97,6.579007333333333,-79.1,-80.66
1734501502317338756,1734501502317130088,3,2.5775,0.87,1.97,6.691576,-78.74,-81.13
1734501502417003981,1734501502416908740,3,2.5775,0.87,1.97,6.779129333333333,-79.04,-81.2
1734501502517580431,1734501502517247915,3,2.5775,0.87,1.97,6.885444333333333,-79.49,-81.13
1734501502617642828,1734501502617388963,3,2.5775,0.87,1.97,6.985505333333333,-78.97,-80.56
1734501502717640653,1734501502717499971,3,2.5775,0.87,1.97,7.073058666666667,-79.35,-80.92
1734501502817431081,1734501502817278146,3,2.5775,0.87,1.97,7.166865666666666,-79.91,-80.83
1734501502917278184,1734501502917071342,3,2.5775,0.87,1.97,7.279433999999999,-79.17,-81.2
1734501503017767084,1734501503017670392,3,2.5775,0.87,1.97,7.404509999999999,-79.12,-80.81
1734501503117669402,1734501503117412090,3,2.5775,0.87,1.97,7.498317,-78.43,-81.17
1734501503217399818,1734501503217147588,3,2.5775,0.87,1.97,7.5733630000000005,-78.56,-81.21
1734501503317105005,1734501503316842317,3,2.5775,0.87,1.97,7.673424,-79.47,-81.2
1734501503417747959,1734501503417396545,3,2.5775,0.87,1.97,7.773485,-79.13,-80.46
1734501504417469246,1734501504416221380,3,2.5775,0.87,1.97,8.905424666666667,-79.53,-80.84
1734501504517075299,1734501504516983270,3,2.5775,0.87,1.97,9.024247333333333,-79.57,-80.81
1734501504618408285,1734501504618153810,3,2.5775,0.87,1.97,9.130562,-79.14,-80.61
1734501504716662126,1734501504716398239,3,2.5775,0.87,1.97,9.236877,-79.11,-80.6
1734501504816559589,1734501504816345930,3,2.5775,0.87,1.97,9.343191666666668,-79.86,-82.72
1734501504916712796,1734501504916568517,3,2.5775,0.87,1.97,9.474521333333334,-79.24,-81.05
1734501505016601759,1734501505016317367,3,2.5775,0.87,1.97,9.599597333333334,-79.03,-81.7
1734501505116836911,1734501505116450548,3,2.5775,0.87,1.97,9.755942666666668,-78.9,-80.88
1734501505216566438,1734501505216333389,3,2.5775,0.87,1.97,9.881019,-79.62,-81.05
1734501505316557184,1734501505316437482,3,2.5775,0.87,1.97,10.006095,-79.27,-80.67
1734501505416340456,1734501505416099786,3,2.5775,0.87,1.97,10.093648333333332,-79.05,-80.36
1734501505516889694,1734501505516529560,3,2.5775,0.87,1.97,10.212470666666666,-79.89,-80.8
1734501505616654667,1734501505616328001,3,2.5775,0.87,1.97,10.337547,-79.53,-80.73
1734501505816555272,1734501505816252946,3,2.5775,0.87,1.97,10.456369333333333,-79.37,-81.18
1734501505917159800,1734501505916767597,3,2.5775,0.87,1.97,10.587699333333333,-80.43,-80.85
1734501506016403924,1734501506016185283,3,2.5775,0.87,1.97,10.694014000000001,-80.45,-81.15
1734501506117127660,1734501506116555452,3,2.5775,0.87,1.97,10.837851666666667,-79.45,-81.17
1734501506216400609,1734501506216212749,3,2.5775,0.87,1.97,10.937912666666668,-79.53,-81.05
1734501506316635071,1734501506316304445,3,2.5775,0.87,1.97,11.094258000000002,-79.79,-81.08
1734501506416466991,1734501506416261911,3,2.5775,0.87,1.97,11.231841666666668,-79.56,-80.62
1734501506516419861,1734501506516174077,3,2.5775,0.87,1.97,11.356918,-79.91,-81.07
1734501506616632075,1734501506616450309,3,2.5775,0.87,1.97,11.481994,-79.81,-80.67
1734501506716353457,1734501506716082572,3,2.5775,0.87,1.97,11.607070333333333,-79.72,-80.59
1734501506816455901,1734501506816373348,3,2.5775,0.87,1.97,11.769669333333333,-80.35,-80.91
1734501506916657355,1734501506916377067,3,2.5775,0.87,1.97,11.913507000000001,-79.46,-80.56
1734501507016687281,1734501507016412734,3,2.5775,0.87,1.97,12.051090666666667,-80.1,-80.77
1734501507116452849,1734501507116268396,3,2.5775,0.87,1.97,12.176167,-79.82,-81.13
1734501507216421091,1734501507216186761,3,2.5775,0.87,1.97,12.294989333333334,-80.35,-82.23
1734501507316417825,1734501507316155672,3,2.5775,0.87,1.97,12.426319333333334,-81.1,-83.09
1734501507416694324,1734501507416387796,3,2.5775,0.87,1.97,12.570157,-81.12,-82.37
1734501507516758823,1734501507516334533,3,2.5775,0.87,1.97,12.701487,-80.38,-81.59
1734501507616853182,1734501507616487503,3,2.5775,0.87,1.97,12.826563,-80.54,-82.45
1734501507716329109,1734501507716240406,3,2.5775,0.87,1.97,12.957892666666666,-80.29,-81.26
1734501507817473211,1734501507817210674,3,2.5775,0.87,1.97,13.114238,-79.72,-80.82
1734501507916442711,1734501507916124343,3,2.5775,0.87,1.97,13.264329666666667,-79.67,-80.85
1734501508016685087,1734501508016393899,3,2.5775,0.87,1.97,13.420674999999997,-80.49,-80.99
1734501508116491816,1734501508116210699,3,2.5775,0.87,1.97,13.533243666666666,-80.07,-80.79
1734501508216468185,1734501508216091871,3,2.5775,0.87,1.97,13.670827333333333,-79.53,-81.0
1734501508316611109,1734501508316370010,3,2.5775,0.87,1.97,13.795903333333333,-80.24,-80.86
1734501508416627142,1734501508416358470,3,2.5775,0.87,1.97,13.952248666666668,-80.0,-81.11
1734501508516731768,1734501508516537427,3,2.5775,0.87,1.97,14.077325000000002,-80.2,-81.01
1734501508616372552,1734501508616134643,3,2.5775,0.87,1.97,14.221162666666666,-80.19,-80.73
1734501508717240637,1734501508717083454,3,2.5775,0.87,1.97,14.371253666666668,-83.21,-83.37
1734501508817311154,1734501508817082405,3,2.5775,0.87,1.97,12.457588000000001,-84.31,-102.79
1734501510317915509,1734501510317738771,3,2.5775,0.87,1.97,16.578847333333332,-80.22,-80.88
1734501510418777132,1734501510418552160,3,2.5775,0.87,1.97,16.71017733333333,-80.0,-80.85
1734501510515146693,1734501510515055894,3,2.5775,0.87,1.97,16.854015,-80.24,-81.15
1734501510615480453,1734501510615005493,3,2.5775,0.87,1.97,16.985344666666666,-80.4,-80.9
1734501510716597002,1734501510716287374,3,2.5775,0.87,1.97,17.129182333333333,-80.46,-81.22
1734501510816655281,1734501510816485643,3,2.5775,0.87,1.97,17.285527666666667,-80.95,-81.16
1734501510917369479,1734501510917141437,3,2.5775,0.87,1.97,17.41685766666667,-80.83,-81.8
1734501511017475379,1734501511017402172,3,2.5775,0.87,1.97,17.548188,-82.06,-81.98
1734501511117405213,1734501511117276430,3,2.5775,0.87,1.97,17.679518,-81.02,-81.26
1734501511217500865,1734501511217192173,3,2.5775,0.87,1.97,17.848371,-81.74,-83.39
1734501511317493757,1734501511317288875,3,2.5775,0.87,1.97,18.017223333333334,-83.63,-86.04
1734501511417044272,1734501511416912078,3,2.5775,0.87,1.97,18.161061,-84.32,-85.75
1734501511517377250,1734501511517077922,3,2.5775,0.87,1.97,18.273629666666665,-82.74,-84.52
1734501511617217599,1734501511617072820,3,2.5775,0.87,1.97,18.392452666666667,-84.82,-86.41
1734501511718615347,1734501511718406438,3,2.5775,0.87,1.97,18.530036666666664,-83.8,-87.4
1734501511817273221,1734501511817058324,3,2.5775,0.87,1.97,18.686382,-83.81,-84.48
1734501511917380720,1734501511917172670,3,2.5775,0.87,1.97,18.830219333333332,-83.24,-83.81
1734501512017081694,1734501512016949415,3,2.5775,0.87,1.97,18.967802666666667,-83.3,-84.04
1734501512117339076,1734501512117070198,3,2.5775,0.87,1.97,19.111640333333334,-82.28,-83.1
1734501512217319116,1734501512217222690,3,2.5775,0.87,1.97,19.274239333333337,-81.7,-81.87
1734501512317186703,1734501512316974163,3,2.5775,0.87,1.97,19.443092333333333,-82.0,-81.84
