%time,field.stamp,field.id,field.x,field.y,field.z,field.distanceFromTag,field.rssi,field.rssi_fp
1733053256750998064,1733053256750827312,5,-0.36,-0.46,1.97,3.8586006666666663,-79.06,-80.62
1733053256850708460,1733053256850601911,5,-0.36,-0.46,1.97,3.8460929999999998,-79.26,-80.8
1733053256948268676,1733053256947883367,5,-0.36,-0.46,1.97,3.8711083333333334,-79.32,-81.5
1733053257048397509,1733053257047889471,5,-0.36,-0.46,1.97,3.852346666666667,-79.43,-80.92
1733053257149272523,1733053257149101734,5,-0.36,-0.46,1.97,3.839839,-79.25,-80.59
1733053257249600865,1733053257249263525,5,-0.36,-0.46,1.97,3.8210773333333337,-78.92,-80.58
1733053257349325028,1733053257349133968,5,-0.36,-0.46,1.97,3.8210773333333337,-79.15,-80.79
1733053257449227091,1733053257449044704,5,-0.36,-0.46,1.97,3.814823333333333,-79.24,-81.0
1733053257550371918,1733053257550175905,5,-0.36,-0.46,1.97,3.814823333333333,-79.0,-80.41
1733053257650223940,1733053257650061607,5,-0.36,-0.46,1.97,3.7960619999999996,-79.27,-80.68
1733053257749494339,1733053257749307394,5,-0.36,-0.46,1.97,3.808569666666667,-79.14,-81.04
1733053257849726131,1733053257849348545,5,-0.36,-0.46,1.97,3.802316,-79.19,-81.27
1733053257948315275,1733053257947880268,5,-0.36,-0.46,1.97,3.8210773333333337,-79.13,-80.6
1733053258048590754,1733053258047958850,5,-0.36,-0.46,1.97,3.8273313333333334,-79.25,-81.52
1733053258150927299,1733053258150742053,5,-0.36,-0.46,1.97,3.8273313333333334,-79.18,-80.65
1733053258250687172,1733053258250522613,5,-0.36,-0.46,1.97,3.8335853333333336,-79.08,-80.46
1733053258350923291,1733053258350786447,5,-0.36,-0.46,1.97,3.814823666666667,-79.45,-81.23
1733053258450785432,1733053258450668096,5,-0.36,-0.46,1.97,3.833585,-79.82,-81.15
1733053258550751636,1733053258550586938,5,-0.36,-0.46,1.97,3.821077333333333,-79.3,-81.06
1733053258651377218,1733053258651153802,5,-0.36,-0.46,1.97,3.8273313333333334,-79.12,-80.58
1733053258750981736,1733053258750751495,5,-0.36,-0.46,1.97,3.8273313333333334,-79.39,-80.86
1733053258850964695,1733053258850707054,5,-0.36,-0.46,1.97,3.8273313333333334,-79.3,-81.16
1733053258950880027,1733053258950612306,5,-0.36,-0.46,1.97,3.846092666666667,-79.34,-81.13
1733053259051399401,1733053259051244020,5,-0.36,-0.46,1.97,3.833585,-79.04,-81.52
1733053259150360424,1733053259150107860,5,-0.36,-0.46,1.97,3.833585,-79.25,-81.05
1733053259250167994,1733053259250037431,5,-0.36,-0.46,1.97,3.833585,-79.31,-81.1
1733053259349533626,1733053259349133491,5,-0.36,-0.46,1.97,3.8273313333333334,-79.24,-81.12
1733053259449407819,1733053259449105739,5,-0.36,-0.46,1.97,3.846092666666667,-79.14,-80.81
1733053259549270418,1733053259549003362,5,-0.36,-0.46,1.97,3.8273313333333334,-78.98,-81.39
1733053259649510849,1733053259649228811,5,-0.36,-0.46,1.97,3.821077333333333,-79.34,-81.23
1733053259750538041,1733053259750208139,5,-0.36,-0.46,1.97,3.8273313333333334,-79.26,-80.98
1733053259950082683,1733053259949915170,5,-0.36,-0.46,1.97,3.839839,-79.07,-81.9
1733053260050220305,1733053260050094604,5,-0.36,-0.46,1.97,3.864854333333333,-79.19,-80.58
1733053260150962367,1733053260150858640,5,-0.36,-0.46,1.97,3.846092666666667,-79.13,-80.86
1733053260251328973,1733053260251160144,5,-0.36,-0.46,1.97,3.833585,-79.31,-81.15
1733053260351259795,1733053260351117134,5,-0.36,-0.46,1.97,3.814823666666667,-79.43,-81.31
1733053260451222001,1733053260450897932,5,-0.36,-0.46,1.97,3.821077666666667,-79.62,-81.45
1733053260550440402,1733053260550178527,5,-0.36,-0.46,1.97,3.8460929999999998,-79.13,-80.69
1733053260650469046,1733053260650330543,5,-0.36,-0.46,1.97,3.8711083333333334,-79.53,-80.78
1733053260750480317,1733053260750295639,5,-0.36,-0.46,1.97,3.8586006666666663,-79.11,-81.26
1733053260850117251,1733053260850040435,5,-0.36,-0.46,1.97,3.833585333333333,-79.55,-81.22
1733053260951105380,1733053260950858831,5,-0.36,-0.46,1.97,3.814823666666667,-79.37,-81.21
1733053261051551254,1733053261051329612,5,-0.36,-0.46,1.97,3.808569666666667,-79.19,-81.03
1733053261151099820,1733053261150936365,5,-0.36,-0.46,1.97,3.833585,-79.32,-80.94
1733053261251316831,1733053261251050710,5,-0.36,-0.46,1.97,3.839839,-79.0,-80.66
1733053261351520455,1733053261351309299,5,-0.36,-0.46,1.97,3.8586006666666663,-79.04,-80.8
1733053261451108994,1733053261450912237,5,-0.36,-0.46,1.97,3.852346666666667,-79.18,-81.99
1733053261551032927,1733053261550719261,5,-0.36,-0.46,1.97,3.833585,-79.15,-80.62
1733053261651355524,1733053261651025772,5,-0.36,-0.46,1.97,3.8398386666666666,-79.07,-80.59
1733053261751700200,1733053261751562356,5,-0.36,-0.46,1.97,3.821077333333333,-78.97,-81.53
1733053261851212297,1733053261850954771,5,-0.36,-0.46,1.97,3.833585,-78.89,-81.67
1733053261951015591,1733053261950861930,5,-0.36,-0.46,1.97,3.833585,-79.1,-80.61
1733053262051943114,1733053262051652431,5,-0.36,-0.46,1.97,3.846092666666667,-79.29,-82.08
1733053262151407492,1733053262151324510,5,-0.36,-0.46,1.97,3.846092666666667,-79.24,-80.71
1733053262251160576,1733053262251014947,5,-0.36,-0.46,1.97,3.8335850000000007,-79.27,-80.87
1733053262748320790,1733053262747930526,5,-0.36,-0.46,1.97,3.821077666666667,-79.19,-80.61
1733053262849914593,1733053262849534273,5,-0.36,-0.46,1.97,3.80857,-79.08,-81.22
1733053262949883713,1733053262949403047,5,-0.36,-0.46,1.97,3.8335853333333336,-79.3,-81.05
1733053263048341349,1733053263047948122,5,-0.36,-0.46,1.97,3.839839,-79.16,-80.88
1733053263148281231,1733053263147929668,5,-0.36,-0.46,1.97,3.871108,-79.61,-80.76
1733053263250497064,1733053263250240325,5,-0.36,-0.46,1.97,3.877361666666667,-78.95,-81.7
1733053263351058427,1733053263350907564,5,-0.36,-0.46,1.97,3.871108,-79.51,-81.23
1733053263449970473,1733053263449673414,5,-0.36,-0.46,1.97,3.852346666666667,-79.27,-81.12
1733053263549645053,1733053263549375295,5,-0.36,-0.46,1.97,3.852346666666667,-78.87,-81.7
1733053263650258224,1733053263649954319,5,-0.36,-0.46,1.97,3.833585,-79.38,-80.9
1733053263749404642,1733053263749183654,5,-0.36,-0.46,1.97,3.833585,-79.1,-80.48
1733053263849663966,1733053263849320173,5,-0.36,-0.46,1.97,3.833585,-79.31,-80.82
1733053263949950394,1733053263949482917,5,-0.36,-0.46,1.97,3.846092666666667,-79.39,-80.97
1733053264049782133,1733053264049561262,5,-0.36,-0.46,1.97,3.846092666666667,-79.23,-81.07
1733053264149894798,1733053264149633884,5,-0.36,-0.46,1.97,3.846092666666667,-78.97,-80.67
1733053264249664021,1733053264249171733,5,-0.36,-0.46,1.97,3.852346666666667,-79.2,-80.73
1733053264350068586,1733053264349713563,5,-0.36,-0.46,1.97,3.833585,-79.11,-80.8
1733053264449785149,1733053264449675083,5,-0.36,-0.46,1.97,3.839839,-79.1,-80.84
1733053264549605894,1733053264549306631,5,-0.36,-0.46,1.97,3.833585,-79.2,-80.78
1733053264649991726,1733053264649694681,5,-0.36,-0.46,1.97,3.814823333333333,-79.17,-80.74
1733053264750118103,1733053264749912023,5,-0.36,-0.46,1.97,3.821077333333333,-79.2,-82.06
1733053264850032081,1733053264849714756,5,-0.36,-0.46,1.97,3.852346666666667,-79.38,-80.65
1733053264949859056,1733053264949539661,5,-0.36,-0.46,1.97,3.8711083333333334,-78.98,-80.5
1733053265049925529,1733053265049726724,5,-0.36,-0.46,1.97,3.8711083333333334,-79.39,-81.23
1733053265149543800,1733053265149345397,5,-0.36,-0.46,1.97,3.864854333333333,-79.43,-81.94
1733053265249582652,1733053265249156713,5,-0.36,-0.46,1.97,3.8648543333333336,-79.22,-80.81
1733053265349737850,1733053265349501132,5,-0.36,-0.46,1.97,3.858600333333333,-78.89,-81.26
1733053265449794666,1733053265449696302,5,-0.36,-0.46,1.97,3.846092666666667,-79.08,-80.63
1733053265549862488,1733053265549455881,5,-0.36,-0.46,1.97,3.833585,-79.12,-80.91
1733053265648276308,1733053265647905826,5,-0.36,-0.46,1.97,3.8273313333333334,-78.89,-80.71
1733053265748332106,1733053265747908353,5,-0.36,-0.46,1.97,3.852346666666667,-79.16,-80.82
1733053265848293752,1733053265847935199,5,-0.36,-0.46,1.97,3.883615666666667,-78.93,-80.88
1733053265949481775,1733053265949237585,5,-0.36,-0.46,1.97,3.933646,-78.99,-80.97
1733053266049776661,1733053266049390077,5,-0.36,-0.46,1.97,3.9273923333333336,-78.81,-80.57
1733053266149742821,1733053266149340152,5,-0.36,-0.46,1.97,3.902377,-79.56,-81.09
1733053266249773226,1733053266249382972,5,-0.36,-0.46,1.97,3.8773619999999998,-78.89,-80.55
1733053266349992466,1733053266349665641,5,-0.36,-0.46,1.97,3.896123333333333,-79.16,-80.99
1733053266449461184,1733053266449201583,5,-0.36,-0.46,1.97,3.9211386666666663,-79.08,-81.62
1733053266549646379,1733053266549334049,5,-0.36,-0.46,1.97,3.952407666666667,-79.12,-81.82
1733053266649613165,1733053266649296998,5,-0.36,-0.46,1.97,3.9649153333333333,-79.15,-80.58
1733053266749243695,1733053266749034643,5,-0.36,-0.46,1.97,3.9836766666666663,-79.29,-80.63
1733053266849410288,1733053266849081277,5,-0.36,-0.46,1.97,3.977422666666667,-79.93,-81.18
1733053266949885051,1733053266949623823,5,-0.36,-0.46,1.97,3.9836763333333334,-79.79,-81.11
1733053267049593426,1733053267049345254,5,-0.36,-0.46,1.97,3.9899299999999998,-79.37,-80.6
1733053267148180458,1733053267147885560,5,-0.36,-0.46,1.97,4.021199,-79.52,-81.29
1733053267248369509,1733053267247899532,5,-0.36,-0.46,1.97,4.052468,-79.07,-80.52
1733053267350044591,1733053267349367618,5,-0.36,-0.46,1.97,4.096245000000001,-78.75,-80.53
1733053267449573954,1733053267449271917,5,-0.36,-0.46,1.97,4.140021666666667,-78.9,-80.59
1733053267549436613,1733053267549135446,5,-0.36,-0.46,1.97,4.196306,-79.25,-80.7
1733053267650215768,1733053267649694204,5,-0.36,-0.46,1.97,4.233828666666667,-79.14,-80.63
1733053268052025368,1733053268051900863,5,-0.36,-0.46,1.97,4.408935666666666,-78.6,-80.4
1733053268151102661,1733053268150947332,5,-0.36,-0.46,1.97,4.452712333333333,-78.85,-80.38
1733053268250940254,1733053268250735521,5,-0.36,-0.46,1.97,4.515250333333333,-79.66,-80.94
1733053268352277927,1733053268351928949,5,-0.36,-0.46,1.97,4.552773,-79.26,-80.51
1733053268451286323,1733053268450973749,5,-0.36,-0.46,1.97,4.577788333333333,-79.37,-80.56
1733053268550577523,1733053268550435066,5,-0.36,-0.46,1.97,4.609057333333333,-78.7,-80.42
1733053268651193857,1733053268650893211,5,-0.36,-0.46,1.97,4.702864666666667,-78.61,-80.89
1733053268751066407,1733053268750754833,5,-0.36,-0.46,1.97,4.796671666666667,-79.07,-80.95
1733053268850566403,1733053268850330114,5,-0.36,-0.46,1.97,4.884225,-78.79,-80.71
1733053268950901344,1733053268950634002,5,-0.36,-0.46,1.97,4.902986333333334,-78.89,-80.33
1733053269050748821,1733053269050587177,5,-0.36,-0.46,1.97,4.959270666666666,-78.96,-80.56
1733053269151162231,1733053269150940418,5,-0.36,-0.46,1.97,5.003047333333334,-78.99,-80.62
1733053269250272326,1733053269250000238,5,-0.36,-0.46,1.97,5.103108333333334,-78.98,-80.48
1733053269350895245,1733053269350682735,5,-0.36,-0.46,1.97,5.190661666666667,-78.72,-80.4
1733053269450570066,1733053269450358867,5,-0.36,-0.46,1.97,5.284468666666666,-79.24,-81.04
1733053269550570652,1733053269550363063,5,-0.36,-0.46,1.97,5.328245333333333,-79.2,-80.61
1733053269650332931,1733053269650146245,5,-0.36,-0.46,1.97,5.384529666666666,-78.91,-80.84
1733053269751241465,1733053269750930547,5,-0.36,-0.46,1.97,5.440814,-78.7,-80.72
1733053269850751131,1733053269850549936,5,-0.36,-0.46,1.97,5.5533823333333325,-78.92,-81.88
1733053269950527687,1733053269950371026,5,-0.36,-0.46,1.97,5.647189333333333,-79.09,-80.97
1733053270050667479,1733053270050499916,5,-0.36,-0.46,1.97,5.7159813333333345,-78.9,-80.65
1733053270151259861,1733053270150826930,5,-0.36,-0.46,1.97,5.784773333333334,-79.25,-80.5
1733053270250360434,1733053270250163555,5,-0.36,-0.46,1.97,5.847311666666666,-79.23,-80.95
1733053270349838951,1733053270349543333,5,-0.36,-0.46,1.97,5.934864999999999,-78.7,-80.81
1733053270450174160,1733053270449882030,5,-0.36,-0.46,1.97,6.034926,-78.67,-81.05
1733053270549785240,1733053270549294233,5,-0.36,-0.46,1.97,6.1412406666666675,-79.04,-80.71
1733053270649579315,1733053270649339437,5,-0.36,-0.46,1.97,6.247555333333334,-79.41,-80.95
1733053270749851325,1733053270749492883,5,-0.36,-0.46,1.97,6.328855,-78.73,-80.51
1733053270849661434,1733053270849351882,5,-0.36,-0.46,1.97,6.447677333333334,-78.5,-80.73
1733053270949902870,1733053270949481964,5,-0.36,-0.46,1.97,6.566499666666666,-78.56,-80.64
1733053271050945119,1733053271050725460,5,-0.36,-0.46,1.97,6.685321999999999,-78.8,-81.61
1733053271150797480,1733053271150573730,5,-0.36,-0.46,1.97,6.760367666666666,-79.12,-80.62
1733053271250392729,1733053271250084638,5,-0.36,-0.46,1.97,6.8416673333333335,-79.19,-80.99
1733053271350567376,1733053271350224494,5,-0.36,-0.46,1.97,6.9229666666666665,-79.83,-81.29
1733053271450076256,1733053271449731826,5,-0.36,-0.46,1.97,7.01052,-79.35,-81.27
1733053271550461343,1733053271550232648,5,-0.36,-0.46,1.97,7.060550333333333,-79.3,-80.85
1733053271648253615,1733053271647896528,5,-0.36,-0.46,1.97,7.166865333333333,-78.86,-80.81
1733053271749884017,1733053271749296665,5,-0.36,-0.46,1.97,7.279433999999999,-79.19,-81.84
1733053271849772217,1733053271849421262,5,-0.36,-0.46,1.97,7.435779333333333,-79.08,-82.53
1733053271950545039,1733053271950326681,5,-0.36,-0.46,1.97,7.548347666666667,-79.08,-81.44
1733053272051165927,1733053272050706148,5,-0.36,-0.46,1.97,7.6484086666666675,-79.03,-80.53
1733053272149673768,1733053272149307966,5,-0.36,-0.46,1.97,7.760977,-79.36,-80.47
1733053272249360998,1733053272249058961,5,-0.36,-0.46,1.97,7.998622,-80.08,-81.13
1733053272349800029,1733053272349527835,5,-0.36,-0.46,1.97,8.098683333333334,-79.5,-81.48
1733053272449972773,1733053272449614286,5,-0.36,-0.46,1.97,8.186236666666666,-79.71,-81.24
1733053272549652554,1733053272549371242,5,-0.36,-0.46,1.97,8.298805333333332,-79.56,-82.45
1733053272649335313,1733053272649093866,5,-0.36,-0.46,1.97,8.423881666666666,-79.77,-81.53
1733053272749851059,1733053272749460935,5,-0.36,-0.46,1.97,8.555211666666667,-79.49,-80.76
1733053272849651117,1733053272849231004,5,-0.36,-0.46,1.97,8.630257333333333,-79.46,-80.58
1733053272949448021,1733053272949157953,5,-0.36,-0.46,1.97,8.711556666666667,-79.87,-80.51
1733053273049749849,1733053273049357652,5,-0.36,-0.46,1.97,8.830379,-79.79,-80.63
1733053273249499784,1733053273249128818,5,-0.36,-0.46,1.97,9.024247,-79.62,-81.03
1733053273349312088,1733053273349043369,5,-0.36,-0.46,1.97,9.199353666666667,-79.85,-80.85
1733053273450629326,1733053273450447559,5,-0.36,-0.46,1.97,9.32443,-80.07,-81.56
1733053273550605722,1733053273550337076,5,-0.36,-0.46,1.97,9.411983333333334,-80.09,-81.85
1733053273650397632,1733053273650072097,5,-0.36,-0.46,1.97,9.543313333333332,-80.14,-81.0
1733053273751143700,1733053273750287532,5,-0.36,-0.46,1.97,9.712165999999998,-80.48,-81.55
1733053273852482768,1733053273851742267,5,-0.36,-0.46,1.97,9.843496,-79.77,-80.94
1733053273948396586,1733053273947929143,5,-0.36,-0.46,1.97,9.968572,-80.43,-80.64
1733053274048330687,1733053274047886371,5,-0.36,-0.46,1.97,10.043618,-79.78,-80.48
1733053274148346659,1733053274147901535,5,-0.36,-0.46,1.97,10.187455666666667,-80.21,-80.89
1733053274248312521,1733053274247912168,5,-0.36,-0.46,1.97,10.312532,-80.04,-80.77
1733053274348352759,1733053274347929716,5,-0.36,-0.46,1.97,10.437607999999999,-80.08,-80.75
1733053274448303636,1733053274447959899,5,-0.36,-0.46,1.97,10.556430333333333,-80.03,-81.87
1733053274548354043,1733053274547919511,5,-0.36,-0.46,1.97,10.675253,-81.41,-83.02
1733053274648760657,1733053274647890090,5,-0.36,-0.46,1.97,10.806583000000002,-80.98,-82.65
1733053274748362917,1733053274747902631,5,-0.36,-0.46,1.97,10.906644,-80.92,-81.99
1733053274848342007,1733053274847904205,5,-0.36,-0.46,1.97,11.006704666666666,-80.83,-81.39
1733053274951258117,1733053274951041936,5,-0.36,-0.46,1.97,11.125527,-80.54,-81.17
1733053275050981155,1733053275050804138,5,-0.36,-0.46,1.97,11.281872333333334,-80.03,-80.83
1733053275151658566,1733053275151419639,5,-0.36,-0.46,1.97,11.413201999999998,-80.04,-81.12
1733053275251435339,1733053275251236677,5,-0.36,-0.46,1.97,11.557039666666666,-80.23,-80.76
1733053275350382283,1733053275350200176,5,-0.36,-0.46,1.97,11.650846666666666,-80.94,-81.05
1733053275451815908,1733053275451629161,5,-0.36,-0.46,1.97,11.788431000000001,-79.89,-80.52
1733053275551441943,1733053275551269054,5,-0.36,-0.46,1.97,11.900999666666669,-79.96,-81.21
1733053275651269968,1733053275651069164,5,-0.36,-0.46,1.97,12.026076000000002,-80.31,-80.99
1733053275750979144,1733053275750805616,5,-0.36,-0.46,1.97,12.119882666666667,-80.31,-81.18
1733053275851421387,1733053275851282596,5,-0.36,-0.46,1.97,12.238704666666669,-80.89,-81.61
1733053275951748552,1733053275951432704,5,-0.36,-0.46,1.97,12.376288333333335,-80.8,-81.38
1733053276051033271,1733053276050965785,5,-0.36,-0.46,1.97,12.520126,-81.05,-83.0
1733053276151582443,1733053276151229619,5,-0.36,-0.46,1.97,12.651456333333334,-81.67,-82.28
1733053276251671579,1733053276251279830,5,-0.36,-0.46,1.97,12.757771,-81.15,-82.2
1733053276350776281,1733053276350523710,5,-0.36,-0.46,1.97,12.882847333333332,-81.14,-82.18
1733053276451244781,1733053276450970172,5,-0.36,-0.46,1.97,13.026684666666666,-80.71,-81.2
1733053276551207479,1733053276550888538,5,-0.36,-0.46,1.97,13.170522333333333,-80.43,-81.73
1733053276650545754,1733053276650361299,5,-0.36,-0.46,1.97,13.258075666666668,-80.55,-81.16
1733053276751556314,1733053276751318931,5,-0.36,-0.46,1.97,13.364390333333333,-80.2,-80.61
1733053276851615968,1733053276851357698,5,-0.36,-0.46,1.97,13.476958999999999,-81.28,-81.49
1733053276950367980,1733053276950000286,5,-0.36,-0.46,1.97,13.614542666666667,-80.14,-80.78
1733053277050033316,1733053277049894332,5,-0.36,-0.46,1.97,13.714604000000001,-80.71,-81.07
1733053277149820580,1733053277149739503,5,-0.36,-0.46,1.97,13.802157333333334,-80.05,-80.76
1733053277250713065,1733053277250497102,5,-0.36,-0.46,1.97,13.952249,-80.57,-81.14
1733053277348087701,1733053277347885370,5,-0.36,-0.46,1.97,14.089832666666666,-80.44,-81.42
1733053277448934880,1733053277447901010,5,-0.36,-0.46,1.97,14.239924,-80.4,-81.08
1733053277548344952,1733053277547874927,5,-0.36,-0.46,1.97,14.333731,-80.7,-81.43
1733053277648167123,1733053277647891044,5,-0.36,-0.46,1.97,14.452553333333332,-82.09,-82.94
1733053277748121888,1733053277747879743,5,-0.36,-0.46,1.97,14.590137,-81.15,-81.77
1733053277848257481,1733053277847918748,5,-0.36,-0.46,1.97,14.752736,-81.75,-82.93
1733053277948545511,1733053277947944879,5,-0.36,-0.46,1.97,14.877812,-82.33,-84.48
1733053278049306718,1733053278049102067,5,-0.36,-0.46,1.97,15.015396,-81.94,-82.38
1733053278149139002,1733053278148874998,5,-0.36,-0.46,1.97,15.127964666666665,-82.11,-84.84
1733053278249389620,1733053278249176025,5,-0.36,-0.46,1.97,15.253041000000001,-82.03,-82.45
1733053278350246562,1733053278350033760,5,-0.36,-0.46,1.97,15.390625,-82.44,-82.72
1733053278448661770,1733053278447954654,5,-0.36,-0.46,1.97,15.503193333333334,-83.26,-84.48
1733053278550123873,1733053278549644947,5,-0.36,-0.46,1.97,15.640777,-81.26,-81.68
1733053278650509382,1733053278650267839,5,-0.36,-0.46,1.97,15.734583666666666,-81.03,-81.47
1733053279155036669,1733053279154778003,5,-0.36,-0.46,1.97,16.353710333333336,-80.45,-80.84
1733053279348268605,1733053279347873687,5,-0.36,-0.46,1.97,16.56008633333333,-80.35,-81.14
1733053279448214721,1733053279447874307,5,-0.36,-0.46,1.97,16.735193,-80.59,-80.81
1733053279551063497,1733053279550808429,5,-0.36,-0.46,1.97,16.897791666666667,-80.41,-80.79
1733053279650032880,1733053279649356365,5,-0.36,-0.46,1.97,17.016613666666668,-80.63,-80.74
1733053279749616893,1733053279749449014,5,-0.36,-0.46,1.97,17.116675,-80.67,-80.78
1733053279851184326,1733053279851052999,5,-0.36,-0.46,1.97,17.398097000000003,-80.9,-81.17
1733053279948446477,1733053279947895288,5,-0.36,-0.46,1.97,17.516919,-81.01,-81.31
1733053280048182365,1733053280047888040,5,-0.36,-0.46,1.97,17.65450233333333,-82.03,-81.85
1733053280148823400,1733053280147919416,5,-0.36,-0.46,1.97,17.773325,-81.74,-82.16
1733053280248322101,1733053280247956514,5,-0.36,-0.46,1.97,17.935924,-81.79,-83.16
1733053280348430140,1733053280347881555,5,-0.36,-0.46,1.97,18.061000333333332,-82.0,-83.37
1733053280448366020,1733053280447881221,5,-0.36,-0.46,1.97,18.204838,-84.54,-85.52
