%time,field.stamp,field.id,field.x,field.y,field.z,field.distanceFromTag,field.rssi,field.rssi_fp
1733129523610995925,1733129523610712051,3,2.5775,-0.87,1.97,6.197525,-80.53,-81.66
1733129523710942067,1733129523710808515,3,2.5775,-0.87,1.97,6.185017333333334,-80.88,-81.39
1733129523811169636,1733129523810844182,3,2.5775,-0.87,1.97,6.166256,-80.42,-81.3
1733129523911020046,1733129523910848855,3,2.5775,-0.87,1.97,6.166256,-81.09,-81.25
1733129524010710439,1733129524010575771,3,2.5775,-0.87,1.97,6.178763666666666,-80.84,-81.27
1733129524207986169,1733129524207626581,3,2.5775,-0.87,1.97,6.178763666666666,-81.13,-81.06
1733129524409147017,1733129524408901691,3,2.5775,-0.87,1.97,6.191271,-80.79,-80.91
1733129524509241120,1733129524508957147,3,2.5775,-0.87,1.97,6.210032333333333,-80.51,-81.6
1733129524609303796,1733129524608991384,3,2.5775,-0.87,1.97,6.210032333333333,-81.07,-81.03
1733129524709030080,1733129524708753108,3,2.5775,-0.87,1.97,6.185017333333334,-80.67,-81.0
1733129524810933376,1733129524810730695,3,2.5775,-0.87,1.97,6.178763333333333,-80.4,-80.71
1733129524907795107,1733129524907622337,3,2.5775,-0.87,1.97,6.166255666666667,-80.45,-81.32
1733129525010721511,1733129525010416030,3,2.5775,-0.87,1.97,6.185016999999999,-80.87,-80.89
1733129525110720340,1733129525110562086,3,2.5775,-0.87,1.97,6.178763333333333,-80.58,-80.73
1733129525210466732,1733129525210302829,3,2.5775,-0.87,1.97,6.178763333333333,-80.89,-81.48
1733129525608047492,1733129525607626199,3,2.5775,-0.87,1.97,6.197524666666666,-80.51,-80.61
1733129525708197499,1733129525707655668,3,2.5775,-0.87,1.97,6.210032000000001,-80.64,-81.3
1733129525808157392,1733129525807621479,3,2.5775,-0.87,1.97,6.197524666666666,-80.81,-81.13
1733129525907898924,1733129525907624721,3,2.5775,-0.87,1.97,6.191271,-80.96,-81.25
1733129526007988894,1733129526007616996,3,2.5775,-0.87,1.97,6.178763666666666,-80.92,-81.67
1733129526109284858,1733129526109021663,3,2.5775,-0.87,1.97,6.191271,-80.92,-81.06
1733129526209223548,1733129526208969116,3,2.5775,-0.87,1.97,6.197524666666666,-81.69,-81.7
1733129526309374583,1733129526308992624,3,2.5775,-0.87,1.97,6.203778333333333,-81.14,-81.22
1733129526408954521,1733129526408839225,3,2.5775,-0.87,1.97,6.197524666666666,-80.95,-81.34
1733129526509006672,1733129526508782625,3,2.5775,-0.87,1.97,6.191271,-80.52,-81.03
1733129526609414067,1733129526609166622,3,2.5775,-0.87,1.97,6.191271,-80.77,-80.8
1733129526708073837,1733129526707600116,3,2.5775,-0.87,1.97,6.185017333333334,-80.84,-81.39
1733129526808293636,1733129526807649374,3,2.5775,-0.87,1.97,6.178763666666666,-80.85,-81.02
1733129526908067837,1733129526907611608,3,2.5775,-0.87,1.97,6.160002333333334,-80.65,-81.08
1733129527008149314,1733129527007624387,3,2.5775,-0.87,1.97,6.153748333333333,-80.31,-81.15
1733129527108131495,1733129527107612133,3,2.5775,-0.87,1.97,6.1600019999999995,-81.25,-81.23
1733129527208211564,1733129527207658767,3,2.5775,-0.87,1.97,6.185016999999999,-81.0,-81.6
1733129527307983115,1733129527307652235,3,2.5775,-0.87,1.97,6.185016999999999,-80.26,-82.02
1733129527508248403,1733129527507648706,3,2.5775,-0.87,1.97,6.185016999999999,-80.51,-80.84
1733129527608029754,1733129527607609510,3,2.5775,-0.87,1.97,6.178763333333333,-80.6,-81.23
1733129527708051908,1733129527707599401,3,2.5775,-0.87,1.97,6.203778666666667,-80.49,-80.74
1733129527807941541,1733129527807620286,3,2.5775,-0.87,1.97,6.197525,-80.55,-81.0
1733129527908094537,1733129527907604217,3,2.5775,-0.87,1.97,6.178763666666666,-80.75,-81.09
1733129528008089517,1733129528007613420,3,2.5775,-0.87,1.97,6.178763666666666,-81.61,-82.75
1733129528107977936,1733129528107612609,3,2.5775,-0.87,1.97,6.197525,-81.73,-81.36
1733129528209045884,1733129528208859205,3,2.5775,-0.87,1.97,6.203778666666667,-81.0,-81.28
1733129528608982461,1733129528608875989,3,2.5775,-0.87,1.97,6.178763333333333,-80.48,-80.56
1733129528710129597,1733129528709042549,3,2.5775,-0.87,1.97,6.191271,-80.54,-80.78
1733129528808941953,1733129528808728694,3,2.5775,-0.87,1.97,6.191271,-81.19,-81.1
1733129528908999923,1733129528908808708,3,2.5775,-0.87,1.97,6.191271,-80.86,-80.74
1733129529009782374,1733129529009473800,3,2.5775,-0.87,1.97,6.172509666666667,-80.99,-81.22
1733129529109284769,1733129529108932256,3,2.5775,-0.87,1.97,6.178763666666666,-80.47,-81.16
1733129529209264973,1733129529209004402,3,2.5775,-0.87,1.97,6.17251,-81.04,-81.43
1733129529309296542,1733129529308888435,3,2.5775,-0.87,1.97,6.17251,-80.62,-80.94
1733129529409012042,1733129529408716440,3,2.5775,-0.87,1.97,6.17251,-80.62,-81.41
1733129529509488010,1733129529509154081,3,2.5775,-0.87,1.97,6.185017333333334,-80.69,-80.7
1733129529608101389,1733129529607631683,3,2.5775,-0.87,1.97,6.191271,-80.61,-80.87
1733129529707856352,1733129529707539796,3,2.5775,-0.87,1.97,6.185016999999999,-81.27,-81.36
1733129529808052720,1733129529807628631,3,2.5775,-0.87,1.97,6.178763333333333,-80.87,-80.85
1733129529907935399,1733129529907595872,3,2.5775,-0.87,1.97,6.172509666666667,-80.45,-80.76
1733129530008038949,1733129530007612466,3,2.5775,-0.87,1.97,6.185017333333334,-80.68,-81.58
1733129530109999771,1733129530109678030,3,2.5775,-0.87,1.97,6.203778666666667,-80.92,-81.73
1733129530310078577,1733129530309705018,3,2.5775,-0.87,1.97,6.203778666666667,-80.7,-80.81
1733129530409100342,1733129530408865213,3,2.5775,-0.87,1.97,6.185017333333334,-80.49,-80.87
1733129530509595178,1733129530509262561,3,2.5775,-0.87,1.97,6.147494666666667,-80.47,-80.96
1733129530610132111,1733129530609971046,3,2.5775,-0.87,1.97,6.153748333333333,-80.68,-81.6
1733129530909957096,1733129530909568309,3,2.5775,-0.87,1.97,6.166256,-80.46,-81.03
1733129531010285660,1733129531010183095,3,2.5775,-0.87,1.97,6.185017333333334,-80.45,-81.3
1733129531509790659,1733129531509638071,3,2.5775,-0.87,1.97,6.178763333333333,-80.75,-80.83
1733129531610658838,1733129531610455274,3,2.5775,-0.87,1.97,6.178763333333333,-81.53,-81.35
1733129531711007941,1733129531710752964,3,2.5775,-0.87,1.97,6.185016999999999,-80.63,-80.71
1733129531810657152,1733129531810390472,3,2.5775,-0.87,1.97,6.191271,-80.57,-80.69
1733129531908991565,1733129531908742427,3,2.5775,-0.87,1.97,6.185017333333334,-80.56,-80.73
1733129532009102982,1733129532008675575,3,2.5775,-0.87,1.97,6.172509666666667,-80.68,-80.84
1733129532108851708,1733129532108670234,3,2.5775,-0.87,1.97,6.172509666666667,-81.76,-81.83
1733129532209046166,1733129532208840608,3,2.5775,-0.87,1.97,6.172509666666667,-81.52,-81.55
1733129532309259118,1733129532308945178,3,2.5775,-0.87,1.97,6.185017333333334,-80.95,-81.24
1733129532410077511,1733129532409741163,3,2.5775,-0.87,1.97,6.185017333333334,-81.01,-81.94
1733129532509386788,1733129532509030103,3,2.5775,-0.87,1.97,6.185017333333334,-81.2,-80.85
1733129532609209120,1733129532608828306,3,2.5775,-0.87,1.97,6.191271,-80.75,-81.2
1733129532709123757,1733129532708827733,3,2.5775,-0.87,1.97,6.191271,-80.91,-80.92
1733129532808968514,1733129532808679580,3,2.5775,-0.87,1.97,6.185017333333334,-80.74,-80.73
1733129532908989004,1733129532908828496,3,2.5775,-0.87,1.97,6.160002333333334,-81.02,-81.29
1733129533009131564,1733129533008833646,3,2.5775,-0.87,1.97,6.147494666666667,-80.2,-81.05
1733129533108985675,1733129533108784914,3,2.5775,-0.87,1.97,6.1287329999999995,-80.04,-80.97
1733129533209559007,1733129533209347486,3,2.5775,-0.87,1.97,6.109971333333333,-80.11,-81.09
1733129533309209004,1733129533308885574,3,2.5775,-0.87,1.97,6.084956000000001,-79.92,-80.67
1733129533409166230,1733129533408767223,3,2.5775,-0.87,1.97,6.059940999999999,-80.23,-81.25
1733129533509955159,1733129533509737968,3,2.5775,-0.87,1.97,6.034926,-79.69,-81.19
1733129533609768903,1733129533609608411,3,2.5775,-0.87,1.97,5.997402999999999,-79.62,-82.06
1733129533711421712,1733129533711283683,3,2.5775,-0.87,1.97,5.953626333333332,-79.82,-82.21
1733129533908022711,1733129533907656192,3,2.5775,-0.87,1.97,5.891088,-80.59,-83.28
1733129534009644704,1733129534009256124,3,2.5775,-0.87,1.97,5.82855,-79.75,-80.79
1733129534109098704,1733129534108795881,3,2.5775,-0.87,1.97,5.740996666666668,-79.91,-81.51
1733129534209821254,1733129534209218263,3,2.5775,-0.87,1.97,5.684712666666667,-80.54,-81.38
1733129534309069770,1733129534308800935,3,2.5775,-0.87,1.97,5.609666999999999,-80.21,-80.63
1733129534407980357,1733129534407624244,3,2.5775,-0.87,1.97,5.565890333333333,-79.82,-80.91
1733129534510082418,1733129534509986162,3,2.5775,-0.87,1.97,5.4908443333333325,-79.4,-80.75
1733129534610060899,1733129534609781265,3,2.5775,-0.87,1.97,5.43456,-79.74,-81.1
1733129534709652920,1733129534709528923,3,2.5775,-0.87,1.97,5.378275666666667,-79.66,-81.43
1733129534809755814,1733129534809566974,3,2.5775,-0.87,1.97,5.328245333333334,-79.66,-82.28
1733129534909880696,1733129534909552812,3,2.5775,-0.87,1.97,5.284468666666666,-79.69,-81.35
1733129535010382265,1733129535010096788,3,2.5775,-0.87,1.97,5.209423,-79.97,-80.54
1733129535110113594,1733129535109877586,3,2.5775,-0.87,1.97,5.140631333333333,-79.99,-80.78
1733129535210190211,1733129535209903955,3,2.5775,-0.87,1.97,5.071839333333334,-79.2,-80.49
1733129535309804921,1733129535309587955,3,2.5775,-0.87,1.97,5.009301333333333,-79.18,-81.15
1733129535409796557,1733129535409623861,3,2.5775,-0.87,1.97,4.953017,-79.49,-81.32
1733129535510987904,1733129535510640621,3,2.5775,-0.87,1.97,4.877971666666667,-79.72,-80.85
1733129535610134256,1733129535609861612,3,2.5775,-0.87,1.97,4.821687333333333,-79.76,-80.62
1733129535710000243,1733129535709800004,3,2.5775,-0.87,1.97,4.734134,-79.42,-80.57
1733129535809812664,1733129535809731006,3,2.5775,-0.87,1.97,4.665342,-78.88,-81.12
1733129535909934172,1733129535909623146,3,2.5775,-0.87,1.97,4.590296333333334,-78.96,-80.98
1733129536010468264,1733129536010043382,3,2.5775,-0.87,1.97,4.5402656666666665,-79.24,-81.2
1733129536109854025,1733129536109771490,3,2.5775,-0.87,1.97,4.4777276666666666,-79.01,-80.97
1733129536211019734,1733129536209566831,3,2.5775,-0.87,1.97,4.408935666666667,-79.17,-80.66
1733129536408040731,1733129536407646656,3,2.5775,-0.87,1.97,4.346397666666667,-79.11,-81.11
1733129536508141621,1733129536507699489,3,2.5775,-0.87,1.97,4.265098,-78.74,-80.69
1733129536709691592,1733129536708799123,3,2.5775,-0.87,1.97,4.165037,-79.23,-81.13
1733129536910137765,1733129536909854412,3,2.5775,-0.87,1.97,4.052468333333334,-79.52,-80.55
1733129537010178117,1733129537009963750,3,2.5775,-0.87,1.97,3.964915,-79.26,-80.92
1733129537110207320,1733129537109940052,3,2.5775,-0.87,1.97,3.902377,-79.2,-80.55
1733129537310179512,1733129537309974193,3,2.5775,-0.87,1.97,3.846092666666667,-79.86,-80.77
1733129537507958510,1733129537507606267,3,2.5775,-0.87,1.97,3.7647930000000005,-79.23,-80.43
1733129537911269967,1733129537911173582,3,2.5775,-0.87,1.97,3.6397169999999996,-78.73,-80.77
1733129538009764453,1733129538009629726,3,2.5775,-0.87,1.97,3.5771786666666667,-79.13,-81.12
1733129538111164414,1733129538111038684,3,2.5775,-0.87,1.97,3.5584173333333333,-79.11,-80.78
1733129538207765239,1733129538207606077,3,2.5775,-0.87,1.97,3.552163333333333,-79.79,-81.19
1733129538310741931,1733129538310454368,3,2.5775,-0.87,1.97,3.552163333333333,-79.14,-80.59
1733129538409977322,1733129538409779548,3,2.5775,-0.87,1.97,3.533402,-79.14,-81.25
1733129538509733399,1733129538509546518,3,2.5775,-0.87,1.97,3.520894333333333,-79.19,-80.85
1733129538609513670,1733129538609369039,3,2.5775,-0.87,1.97,3.502133,-79.24,-80.48
1733129538710291075,1733129538709839344,3,2.5775,-0.87,1.97,3.495879,-79.5,-80.65
1733129538809993919,1733129538809566020,3,2.5775,-0.87,1.97,3.5021330000000006,-78.92,-80.46
1733129538910204725,1733129538909970998,3,2.5775,-0.87,1.97,3.552163333333333,-80.64,-81.32
1733129539010421385,1733129539010076522,3,2.5775,-0.87,1.97,3.5771786666666667,-79.5,-81.23
1733129539109829588,1733129539109700441,3,2.5775,-0.87,1.97,3.5896863333333333,-79.07,-80.73
1733129539209945991,1733129539209729433,3,2.5775,-0.87,1.97,3.5896863333333333,-78.88,-80.55
1733129539309940514,1733129539309675455,3,2.5775,-0.87,1.97,3.6209553333333333,-79.34,-80.86
1733129539409851425,1733129539409621000,3,2.5775,-0.87,1.97,3.6647320000000003,-79.07,-80.37
1733129539510071046,1733129539509773492,3,2.5775,-0.87,1.97,3.7147626666666667,-79.1,-80.51
1733129539610027039,1733129539609698534,3,2.5775,-0.87,1.97,3.789808666666667,-78.9,-80.83
1733129539709916534,1733129539709705114,3,2.5775,-0.87,1.97,3.864854333333333,-79.01,-80.42
1733129539809747692,1733129539809614181,3,2.5775,-0.87,1.97,3.9336463333333334,-78.98,-80.66
1733129539910224026,1733129539909802198,3,2.5775,-0.87,1.97,3.9899303333333336,-79.79,-80.57
1733129540009885181,1733129540009650707,3,2.5775,-0.87,1.97,4.046214666666667,-78.65,-80.75
1733129540110035598,1733129540109841585,3,2.5775,-0.87,1.97,4.1150063333333335,-78.73,-80.59
1733129540209797030,1733129540209632396,3,2.5775,-0.87,1.97,4.183798333333333,-79.08,-80.96
1733129540309773343,1733129540309628248,3,2.5775,-0.87,1.97,4.258844,-79.3,-80.76
1733129540409535791,1733129540409406423,3,2.5775,-0.87,1.97,4.346397333333333,-78.64,-80.45
1733129540509721649,1733129540509500265,3,2.5775,-0.87,1.97,4.433950666666667,-79.2,-80.47
1733129540609767667,1733129540609573841,3,2.5775,-0.87,1.97,4.51525,-79.54,-80.96
1733129540709666514,1733129540709530591,3,2.5775,-0.87,1.97,4.602803333333333,-79.6,-80.82
1733129540809871205,1733129540809703111,3,2.5775,-0.87,1.97,4.684103,-78.78,-80.69
1733129540909887349,1733129540909582614,3,2.5775,-0.87,1.97,4.777910333333334,-79.15,-81.17
1733129541009825870,1733129541009668350,3,2.5775,-0.87,1.97,4.865463666666667,-78.92,-80.53
1733129541109995692,1733129541109878301,3,2.5775,-0.87,1.97,4.940509333333334,-79.34,-80.66
1733129541210201547,1733129541209701538,3,2.5775,-0.87,1.97,5.034316333333333,-78.87,-80.78
1733129541509329903,1733129541508997678,3,2.5775,-0.87,1.97,5.171900333333333,-79.76,-80.81
1733129541608995144,1733129541608750581,3,2.5775,-0.87,1.97,5.359514333333333,-79.19,-80.8
1733129541708943131,1733129541708715438,3,2.5775,-0.87,1.97,5.540874666666667,-79.69,-80.93
1733129541809021748,1733129541808810234,3,2.5775,-0.87,1.97,5.653443,-79.47,-80.93
1733129541908910677,1733129541908721685,3,2.5775,-0.87,1.97,5.7660116666666665,-79.58,-80.67
1733129542010385882,1733129542010202646,3,2.5775,-0.87,1.97,5.866072666666668,-79.23,-80.66
1733129542110221692,1733129542109967470,3,2.5775,-0.87,1.97,5.972387666666666,-78.96,-80.76
1733129542209814284,1733129542209481239,3,2.5775,-0.87,1.97,6.059940999999999,-79.37,-81.12
1733129542310422070,1733129542310078144,3,2.5775,-0.87,1.97,6.160002000000001,-79.49,-81.04
1733129542410289117,1733129542409886837,3,2.5775,-0.87,1.97,6.2850779999999995,-79.47,-80.72
1733129542509908501,1733129542509763479,3,2.5775,-0.87,1.97,6.416408,-79.12,-80.61
1733129542709082007,1733129542708804130,3,2.5775,-0.87,1.97,6.591514666666666,-80.14,-81.72
1733129543709983956,1733129543709757328,3,2.5775,-0.87,1.97,7.842276666666667,-80.08,-80.48
1733129543810796348,1733129543810614109,3,2.5775,-0.87,1.97,7.936084000000001,-80.16,-81.03
1733129543910923845,1733129543910670995,3,2.5775,-0.87,1.97,8.042398666666665,-79.73,-80.79
1733129544009859710,1733129544009626865,3,2.5775,-0.87,1.97,8.154967333333333,-79.87,-81.95
1733129544111331133,1733129544110897302,3,2.5775,-0.87,1.97,8.273789666666667,-80.14,-81.27
1733129544209033450,1733129544208727836,3,2.5775,-0.87,1.97,8.392612,-80.03,-81.53
1733129544307952102,1733129544307627677,3,2.5775,-0.87,1.97,8.523942333333332,-79.85,-80.73
1733129544408130605,1733129544407649993,3,2.5775,-0.87,1.97,8.642764666666666,-79.85,-80.5
1733129544507954178,1733129544507633447,3,2.5775,-0.87,1.97,8.780348666666667,-80.35,-80.82
1733129544608133148,1733129544607657194,3,2.5775,-0.87,1.97,8.905424666666669,-79.91,-80.71
1733129544711419762,1733129544711219310,3,2.5775,-0.87,1.97,9.030501,-79.85,-80.65
1733129544809895457,1733129544809634447,3,2.5775,-0.87,1.97,9.130562,-79.97,-81.16
1733129544909705182,1733129544909573554,3,2.5775,-0.87,1.97,9.255638333333332,-80.41,-82.51
1733129545009904937,1733129545009740829,3,2.5775,-0.87,1.97,9.368206666666667,-80.34,-81.41
1733129545110290106,1733129545110203504,3,2.5775,-0.87,1.97,9.505790333333332,-79.98,-81.2
1733129545211459039,1733129545211172103,3,2.5775,-0.87,1.97,9.618358666666666,-79.79,-80.72
1733129545308084653,1733129545307658910,3,2.5775,-0.87,1.97,9.762196333333334,-80.36,-80.77
1733129545407989248,1733129545407610416,3,2.5775,-0.87,1.97,9.868511333333332,-80.12,-80.72
1733129545508063447,1733129545507617473,3,2.5775,-0.87,1.97,10.006095,-79.76,-80.45
1733129545607802200,1733129545607628345,3,2.5775,-0.87,1.97,10.099902333333333,-79.95,-80.57
1733129545708266353,1733129545707675933,3,2.5775,-0.87,1.97,10.249993333333332,-80.28,-80.68
1733129545807995774,1733129545807623863,3,2.5775,-0.87,1.97,10.362562,-80.21,-81.12
1733129545908066729,1733129545907628297,3,2.5775,-0.87,1.97,10.493891666666668,-80.17,-81.27
1733129546010992295,1733129546010787725,3,2.5775,-0.87,1.97,10.637729333333333,-83.29,-86.05
1733129546110861011,1733129546110598087,3,2.5775,-0.87,1.97,10.756551666666667,-80.76,-81.48
1733129546210956365,1733129546210671663,3,2.5775,-0.87,1.97,10.900389333333335,-81.49,-82.27
1733129546310520541,1733129546310312747,3,2.5775,-0.87,1.97,10.987942666666667,-81.49,-83.46
1733129546410958056,1733129546410746335,3,2.5775,-0.87,1.97,11.125526666666667,-80.47,-81.18
1733129546510452860,1733129546510374546,3,2.5775,-0.87,1.97,11.250603,-80.36,-80.96
1733129546610269728,1733129546610053777,3,2.5775,-0.87,1.97,11.375679333333332,-80.38,-81.11
1733129546710602545,1733129546710436344,3,2.5775,-0.87,1.97,11.507009333333334,-80.36,-81.03
1733129546810416260,1733129546810138702,3,2.5775,-0.87,1.97,11.619577999999999,-80.04,-80.59
1733129547210813805,1733129547210590362,3,2.5775,-0.87,1.97,12.151151666666665,-80.75,-81.19
1733129547310449486,1733129547310240983,3,2.5775,-0.87,1.97,12.269973666666667,-80.83,-81.24
1733129547410485920,1733129547410190105,3,2.5775,-0.87,1.97,12.382542333333333,-81.18,-81.98
1733129547511042950,1733129547510782718,3,2.5775,-0.87,1.97,12.495111000000001,-81.28,-83.79
1733129547610736493,1733129547610602140,3,2.5775,-0.87,1.97,12.613933333333334,-81.28,-84.13
1733129547710514067,1733129547710369110,3,2.5775,-0.87,1.97,12.739009666666666,-81.35,-83.28
1733129547810579942,1733129547810424089,3,2.5775,-0.87,1.97,12.895354666666668,-81.02,-82.41
1733129547910597003,1733129547910433053,3,2.5775,-0.87,1.97,13.026685,-80.61,-81.11
1733129548010531634,1733129548010369777,3,2.5775,-0.87,1.97,13.176776333333335,-80.66,-81.03
1733129548110435587,1733129548110341787,3,2.5775,-0.87,1.97,13.289345333333335,-80.43,-80.68
1733129548210906508,1733129548210713148,3,2.5775,-0.87,1.97,13.433183,-80.42,-81.8
1733129548310464830,1733129548310281038,3,2.5775,-0.87,1.97,13.564513,-80.33,-80.73
1733129548410588427,1733129548410446882,3,2.5775,-0.87,1.97,13.702096666666668,-80.23,-81.16
1733129548510436223,1733129548510280847,3,2.5775,-0.87,1.97,13.820918999999998,-80.02,-81.03
1733129548708050462,1733129548707635164,3,2.5775,-0.87,1.97,13.996025666666668,-80.33,-80.84
1733129548808088382,1733129548807630777,3,2.5775,-0.87,1.97,14.171132333333334,-81.06,-81.39
1733129548908072237,1733129548907678127,3,2.5775,-0.87,1.97,14.352492666666668,-80.85,-81.33
1733129549008074074,1733129549007615566,3,2.5775,-0.87,1.97,14.465061333333333,-81.61,-82.06
1733129549107910413,1733129549107613086,3,2.5775,-0.87,1.97,14.577629666666667,-82.02,-84.46
1733129549208054126,1733129549207645416,3,2.5775,-0.87,1.97,14.702706000000001,-81.92,-82.33
1733129549310741440,1733129549310469865,3,2.5775,-0.87,1.97,14.821528333333333,-82.13,-84.15
1733129549410673397,1733129549410433769,3,2.5775,-0.87,1.97,14.959112333333332,-82.57,-85.77
1733129549508050868,1733129549507636308,3,2.5775,-0.87,1.97,15.090442000000001,-82.22,-84.7
1733129549608001964,1733129549607619524,3,2.5775,-0.87,1.97,15.221771666666667,-81.96,-84.03
1733129549707954106,1733129549707624673,3,2.5775,-0.87,1.97,15.359355333333333,-82.1,-82.4
